horizontal,vertical,label
1.47,0.78,2
1.49,0.73,2
1.48,0.7,2
1.46,0.77,2
1.48,0.75,2
1.49,0.69,2
1.47,0.74,2
1.48,0.77,2
1.51,0.71,2
1.49,0.73,2
1.48,0.79,2
1.51,0.73,2
1.5,0.71,2
1.48,0.77,2
1.5,0.75,2
1.51,0.7,2
1.49,0.76,2
1.5,0.78,2
1.52,0.71,2
1.5,0.73,2
1.49,0.79,2
1.51,0.73,2
1.51,0.71,2
1.49,0.79,2
1.5,0.77,2
1.52,0.71,2
1.49,0.76,2
1.5,0.78,2
1.51,0.7,2
1.49,0.72,2
1.48,0.78,2
1.51,0.73,2
1.5,0.71,2
1.48,0.78,2
1.5,0.76,2
1.51,0.7,2
1.48,0.75,2
1.48,0.78,2
1.5,0.71,2
1.49,0.73,2
1.47,0.79,2
1.5,0.73,2
1.49,0.71,2
1.48,0.79,2
1.49,0.77,2
1.5,0.72,2
1.48,0.78,2
1.49,0.8,2
1.5,0.73,2
1.49,0.75,2
1.48,0.81,2
1.5,0.75,2
1.5,0.72,2
1.48,0.8,2
1.5,0.78,2
1.52,0.73,2
1.49,0.78,2
1.5,0.8,2
1.52,0.73,2
1.51,0.75,2
1.5,0.81,2
1.53,0.76,2
1.52,0.74,2
1.51,0.82,2
1.52,0.8,2
1.54,0.74,2
1.51,0.79,2
1.52,0.81,2
1.53,0.74,2
1.52,0.76,2
1.5,0.82,2
1.53,0.77,2
1.53,0.75,2
1.52,0.82,2
1.53,0.79,2
1.55,0.73,2
1.52,0.78,2
1.53,0.8,2
1.55,0.73,2
1.53,0.76,2
1.51,0.82,2
1.54,0.76,2
1.53,0.74,2
1.51,0.81,2
1.52,0.79,2
1.54,0.74,2
1.51,0.79,2
1.52,0.82,2
1.54,0.75,2
1.53,0.77,2
1.52,0.82,2
1.55,0.76,2
1.54,0.74,2
1.52,0.81,2
1.54,0.79,2
1.55,0.74,2
1.52,0.79,2
1.53,0.82,2
1.55,0.75,2
1.54,0.77,2
1.52,0.83,2
1.56,0.77,2
1.55,0.75,2
1.53,0.82,2
1.55,0.79,2
1.56,0.74,2
1.53,0.8,2
1.54,0.82,2
1.56,0.75,2
1.55,0.78,2
1.54,0.83,2
1.56,0.78,2
1.56,0.76,2
1.54,0.83,2
1.55,0.81,2
1.56,0.75,2
1.53,0.81,2
1.53,0.83,2
1.55,0.76,2
1.53,0.79,2
1.52,0.84,2
1.55,0.78,2
1.54,0.76,2
1.53,0.83,2
1.54,0.81,2
1.55,0.76,2
1.52,0.82,2
1.53,0.84,2
1.55,0.77,2
1.53,0.8,2
1.52,0.85,2
1.55,0.79,2
1.54,0.77,2
1.52,0.84,2
1.53,0.81,2
1.54,0.76,2
1.51,0.83,2
1.52,0.85,2
1.54,0.78,2
1.53,0.8,2
1.51,0.86,2
1.55,0.8,2
1.54,0.79,2
1.52,0.86,2
1.54,0.84,2
1.55,0.79,2
1.52,0.85,2
1.53,0.87,2
1.54,0.8,2
1.54,0.83,2
1.53,0.88,2
1.56,0.84,2
1.56,0.81,2
1.54,0.89,2
1.56,0.87,2
1.57,0.82,2
1.54,0.87,2
1.55,0.89,2
1.57,0.82,2
1.56,0.85,2
1.55,0.9,2
1.58,0.85,2
1.57,0.84,2
1.55,0.91,2
1.56,0.88,2
1.58,0.82,2
1.55,0.87,2
1.55,0.89,2
1.57,0.83,2
1.56,0.86,2
1.55,0.92,2
1.59,0.87,2
1.58,0.84,2
1.56,0.91,2
1.57,0.89,2
1.59,0.83,2
1.56,0.89,2
1.56,0.91,2
1.58,0.84,2
1.56,0.87,2
1.54,0.92,2
1.57,0.87,2
1.56,0.86,2
1.55,0.93,2
1.56,0.91,2
1.58,0.86,2
1.55,0.91,2
1.56,0.93,2
1.57,0.85,2
1.56,0.87,2
1.55,0.93,2
1.58,0.87,2
1.57,0.86,2
1.55,0.94,2
1.57,0.91,2
1.58,0.86,2
1.55,0.91,2
1.56,0.93,2
1.58,0.86,2
1.57,0.88,2
1.56,0.94,2
1.6,0.88,2
1.59,0.87,2
1.57,0.95,2
1.59,0.92,2
1.6,0.87,2
1.57,0.93,2
1.58,0.94,2
1.6,0.87,2
1.59,0.9,2
1.58,0.95,2
1.6,0.89,2
1.6,0.88,2
1.58,0.95,2
1.59,0.92,2
1.6,0.86,2
1.57,0.92,2
1.59,0.93,2
1.61,0.87,2
1.6,0.9,2
1.59,0.95,2
1.62,0.89,2
1.61,0.88,2
1.6,0.95,2
1.61,0.92,2
1.62,0.87,2
1.6,0.93,2
1.6,0.94,2
1.62,0.87,2
1.6,0.9,2
1.59,0.95,2
1.62,0.9,2
1.61,0.89,2
1.6,0.96,2
1.62,0.93,2
1.63,0.87,2
1.6,0.93,2
1.6,0.94,2
1.62,0.87,2
1.6,0.9,2
1.59,0.96,2
1.62,0.9,2
1.62,0.89,2
1.6,0.96,2
1.62,0.93,2
1.63,0.88,2
1.6,0.94,2
1.61,0.96,2
1.63,0.89,2
1.61,0.92,2
1.6,0.97,2
1.63,0.92,2
1.62,0.91,2
1.6,0.98,2
1.61,0.95,2
1.62,0.89,2
1.59,0.95,2
1.6,0.96,2
1.62,0.89,2
1.6,0.93,2
1.6,0.98,2
1.63,0.92,2
1.62,0.92,2
1.6,0.99,2
1.62,0.96,2
1.63,0.92,2
1.6,0.97,2
1.61,0.98,2
1.62,0.91,2
1.6,0.94,2
1.59,1.0,2
1.62,0.94,2
1.61,0.92,2
1.59,0.99,2
1.61,0.97,2
1.62,0.91,2
1.59,0.96,2
1.6,0.97,2
1.61,0.89,2
1.59,0.92,2
1.58,0.98,2
1.61,0.93,2
1.6,0.92,2
1.59,0.99,2
1.6,0.96,2
1.61,0.9,2
1.59,0.96,2
1.59,0.97,2
1.61,0.9,2
1.59,0.94,2
1.57,1.0,2
1.6,0.93,2
1.59,0.93,2
1.58,0.99,2
1.6,0.97,2
1.61,0.91,2
1.59,0.97,2
1.61,0.99,2
1.62,0.92,2
1.61,0.96,2
1.61,1.01,2
1.64,0.95,2
1.64,0.93,2
1.62,1.0,2
1.63,0.97,2
1.64,0.92,2
1.61,0.99,2
1.62,1.0,2
1.64,0.93,2
1.63,0.96,2
1.62,1.01,2
1.65,0.94,2
1.64,0.93,2
1.63,1.0,2
1.65,0.98,2
1.66,0.93,2
1.63,0.99,2
1.64,1.0,2
1.66,0.93,2
1.65,0.96,2
1.64,1.01,2
1.67,0.94,2
1.66,0.94,2
1.64,1.01,2
1.65,0.99,2
1.66,0.94,2
1.64,1.0,2
1.64,1.01,2
1.66,0.94,2
1.64,0.97,2
1.63,1.02,2
1.65,0.96,2
1.64,0.95,2
1.62,1.02,2
1.64,0.99,2
1.65,0.94,2
1.63,1.0,2
1.64,1.01,2
1.65,0.94,2
1.64,0.97,2
1.63,1.02,2
1.66,0.96,2
1.65,0.95,2
1.64,1.02,2
1.66,1.0,2
1.67,0.95,2
1.64,1.01,2
1.65,1.02,2
1.66,0.95,2
1.65,0.99,2
1.64,1.04,2
1.66,0.97,2
1.66,0.97,2
1.64,1.04,2
1.66,1.01,2
1.67,0.97,2
1.64,1.04,2
1.65,1.05,2
1.66,0.99,2
1.64,1.02,2
1.63,1.07,2
1.66,1.01,2
1.65,1.0,2
1.63,1.07,2
1.65,1.04,2
1.66,0.99,2
1.63,1.06,2
1.64,1.07,2
1.65,1.0,2
1.63,1.04,2
1.62,1.09,2
1.65,1.02,2
1.64,1.01,2
1.63,1.08,2
1.64,1.04,2
1.65,0.99,2
1.62,1.06,2
1.63,1.07,2
1.65,1.0,2
1.64,1.03,2
1.63,1.08,2
1.66,1.01,2
1.65,1.0,2
1.63,1.06,2
1.65,1.03,2
1.66,0.98,2
1.64,1.05,2
1.64,1.06,2
1.66,0.99,2
1.64,1.03,2
1.63,1.09,2
1.66,1.03,2
1.64,1.04,2
1.62,1.12,2
1.64,1.11,2
1.64,1.08,2
1.62,1.16,2
1.63,1.19,2
1.64,1.14,2
1.63,1.2,2
1.62,1.27,2
1.65,1.22,2
1.64,1.23,2
1.62,1.32,2
1.64,1.31,2
1.64,1.28,2
1.61,1.35,2
1.63,1.37,2
1.64,1.32,2
1.63,1.37,2
1.63,1.43,2
1.66,1.38,2
1.66,1.39,2
1.65,1.47,2
1.67,1.45,2
1.68,1.41,2
1.65,1.49,2
1.66,1.5,2
1.68,1.43,2
1.66,1.47,2
1.65,1.53,2
1.68,1.47,2
1.67,1.47,2
1.66,1.54,2
1.68,1.51,2
1.69,1.46,2
1.66,1.53,2
1.68,1.53,2
1.7,1.47,2
1.68,1.51,2
1.67,1.55,2
1.69,1.49,2
1.68,1.49,2
1.66,1.56,2
1.68,1.52,2
1.69,1.47,2
1.66,1.54,2
1.67,1.54,2
1.69,1.47,2
1.67,1.5,2
1.66,1.54,2
1.69,1.47,2
1.68,1.46,2
1.66,1.53,2
1.68,1.5,2
1.7,1.45,2
1.67,1.52,2
1.68,1.53,2
1.69,1.46,2
1.68,1.5,2
1.67,1.54,2
1.7,1.47,2
1.69,1.47,2
1.67,1.54,2
1.69,1.5,2
1.69,1.45,2
1.66,1.52,2
1.67,1.52,2
1.69,1.45,2
1.67,1.48,2
1.66,1.53,2
1.69,1.46,2
1.68,1.45,2
1.67,1.51,2
1.69,1.47,2
1.7,1.42,2
1.67,1.48,2
1.68,1.49,2
1.69,1.43,2
1.67,1.46,2
1.67,1.5,2
1.7,1.43,2
1.69,1.42,2
1.68,1.48,2
1.7,1.44,2
1.7,1.39,2
1.67,1.46,2
1.68,1.46,2
1.69,1.39,2
1.67,1.42,2
1.66,1.46,2
1.68,1.39,2
1.68,1.38,2
1.66,1.44,2
1.69,1.4,2
1.7,1.35,2
1.67,1.42,2
1.69,1.42,2
1.7,1.35,2
1.68,1.39,2
1.67,1.42,2
1.7,1.34,2
1.69,1.31,2
1.67,1.35,2
1.69,1.28,2
1.7,1.19,2
1.67,1.22,2
1.68,1.18,2
1.7,1.08,2
1.68,1.08,2
1.67,1.08,2
1.7,0.98,2
1.69,0.95,2
1.68,0.98,2
1.69,0.92,2
1.7,0.85,2
1.67,0.9,2
1.67,0.88,2
1.68,0.8,2
1.66,0.83,2
1.65,0.87,2
1.67,0.78,2
1.66,0.78,2
1.64,0.85,2
1.66,0.82,2
1.67,0.78,2
1.64,0.86,2
1.65,0.86,2
1.67,0.8,2
1.65,0.84,2
1.65,0.88,2
1.67,0.82,2
1.66,0.83,2
1.64,0.91,2
1.66,0.88,2
1.66,0.84,2
1.63,0.91,2
1.65,0.91,2
1.66,0.84,2
1.64,0.88,2
1.64,0.92,2
1.67,0.86,2
1.66,0.86,2
1.65,0.93,2
1.67,0.89,2
1.67,0.84,2
1.64,0.91,2
1.65,0.9,2
1.66,0.83,2
1.65,0.87,2
1.65,0.92,2
1.67,0.86,2
1.66,0.86,2
1.65,0.93,2
1.67,0.9,2
1.67,0.86,2
1.64,0.93,2
1.65,0.94,2
1.67,0.88,2
1.65,0.92,2
1.65,0.96,2
1.67,0.9,2
1.66,0.91,2
1.65,0.97,2
1.66,0.94,2
1.66,0.89,2
1.63,0.95,2
1.65,0.94,2
1.66,0.88,2
1.64,0.91,2
1.64,0.95,2
1.66,0.89,2
1.65,0.9,2
1.64,0.96,2
1.66,0.92,2
1.66,0.88,2
1.63,0.94,2
1.65,0.94,2
1.66,0.87,2
1.64,0.91,2
1.64,0.97,2
1.67,0.9,2
1.66,0.91,2
1.65,0.99,2
1.67,0.96,2
1.67,0.92,2
1.64,0.99,2
1.65,0.99,2
1.67,0.92,2
1.65,0.96,2
1.65,1.01,2
1.68,0.95,2
1.67,0.96,2
1.65,1.03,2
1.68,0.99,2
1.68,0.95,2
1.65,1.02,2
1.67,1.01,2
1.68,0.95,2
1.66,1.0,2
1.66,1.05,2
1.69,0.98,2
1.68,0.99,2
1.67,1.06,2
1.69,1.03,2
1.69,0.99,2
1.66,1.06,2
1.68,1.06,2
1.69,1.0,2
1.67,1.05,2
1.67,1.1,2
1.69,1.03,2
1.67,1.04,2
1.66,1.12,2
1.69,1.08,2
1.69,1.05,2
1.67,1.12,2
1.68,1.12,2
1.7,1.06,2
1.67,1.1,2
1.67,1.15,2
1.7,1.08,2
1.7,1.09,2
1.69,1.17,2
1.71,1.13,2
1.71,1.09,2
1.68,1.16,2
1.69,1.16,2
1.71,1.1,2
1.69,1.14,2
1.69,1.19,2
1.72,1.12,2
1.71,1.13,2
1.69,1.2,2
1.71,1.16,2
1.71,1.12,2
1.69,1.19,2
1.7,1.19,2
1.72,1.14,2
1.7,1.18,2
1.7,1.23,2
1.72,1.16,2
1.71,1.17,2
1.69,1.23,2
1.72,1.2,2
1.72,1.16,2
1.69,1.24,2
1.71,1.25,2
1.72,1.19,2
1.7,1.24,2
1.7,1.27,2
1.72,1.2,2
1.71,1.21,2
1.7,1.28,2
1.73,1.25,2
1.72,1.22,2
1.7,1.3,2
1.72,1.29,2
1.73,1.23,2
1.71,1.27,2
1.72,1.31,2
1.74,1.24,2
1.72,1.25,2
1.7,1.31,2
1.72,1.28,2
1.72,1.25,2
1.69,1.33,2
1.71,1.33,2
1.72,1.27,2
1.7,1.31,2
1.7,1.35,2
1.73,1.29,2
1.72,1.3,2
1.7,1.38,2
1.72,1.34,2
1.72,1.31,2
1.69,1.38,2
1.7,1.37,2
1.72,1.31,2
1.7,1.35,2
1.7,1.4,2
1.73,1.34,2
1.72,1.35,2
1.7,1.42,2
1.73,1.38,2
1.72,1.34,2
1.69,1.42,2
1.71,1.41,2
1.72,1.35,2
1.7,1.39,2
1.7,1.43,2
1.73,1.37,2
1.71,1.38,2
1.7,1.45,2
1.72,1.41,2
1.71,1.38,2
1.69,1.45,2
1.7,1.44,2
1.71,1.38,2
1.69,1.42,2
1.69,1.47,2
1.71,1.4,2
1.69,1.42,2
1.67,1.49,2
1.69,1.45,2
1.69,1.41,2
1.67,1.49,2
1.69,1.48,2
1.71,1.42,2
1.69,1.48,2
1.69,1.52,2
1.72,1.45,3
1.7,1.46,3
1.68,1.52,3
1.71,1.48,3
1.7,1.45,3
1.68,1.52,3
1.69,1.51,3
1.7,1.45,3
1.67,1.5,3
1.68,1.54,3
1.7,1.47,3
1.69,1.48,3
1.68,1.55,3
1.7,1.51,3
1.69,1.47,3
1.67,1.54,3
1.68,1.54,3
1.69,1.48,3
1.67,1.53,3
1.68,1.57,3
1.7,1.5,3
1.69,1.5,3
1.68,1.57,3
1.7,1.52,3
1.69,1.48,3
1.66,1.55,3
1.68,1.55,3
1.69,1.49,3
1.67,1.54,3
1.67,1.57,3
1.7,1.5,3
1.68,1.51,3
1.66,1.57,3
1.69,1.53,3
1.68,1.5,3
1.66,1.56,3
1.68,1.56,3
1.69,1.5,3
1.67,1.55,3
1.67,1.58,3
1.7,1.52,3
1.69,1.52,3
1.67,1.57,3
1.7,1.53,3
1.69,1.49,3
1.67,1.56,3
1.68,1.56,3
1.69,1.5,3
1.66,1.54,3
1.66,1.58,3
1.68,1.5,3
1.66,1.51,3
1.65,1.57,3
1.67,1.52,3
1.67,1.49,3
1.64,1.56,3
1.65,1.54,3
1.67,1.48,3
1.65,1.52,3
1.65,1.55,3
1.67,1.48,3
1.66,1.49,3
1.64,1.55,3
1.66,1.51,3
1.65,1.47,3
1.63,1.54,3
1.64,1.53,3
1.65,1.47,3
1.63,1.5,3
1.64,1.54,3
1.66,1.47,3
1.65,1.48,3
1.63,1.53,3
1.65,1.48,3
1.64,1.45,3
1.62,1.51,3
1.63,1.5,3
1.64,1.44,3
1.62,1.48,3
1.62,1.52,3
1.65,1.44,3
1.63,1.45,3
1.61,1.51,3
1.64,1.46,3
1.63,1.43,3
1.6,1.5,3
1.62,1.48,3
1.63,1.42,3
1.61,1.46,3
1.61,1.49,3
1.63,1.42,3
1.62,1.43,3
1.6,1.49,3
1.63,1.45,3
1.62,1.41,3
1.59,1.47,3
1.61,1.46,3
1.62,1.4,3
1.59,1.45,3
1.6,1.48,3
1.62,1.41,3
1.61,1.41,3
1.59,1.47,3
1.61,1.42,3
1.61,1.38,3
1.58,1.45,3
1.6,1.44,3
1.61,1.37,3
1.58,1.41,3
1.59,1.44,3
1.61,1.36,3
1.59,1.37,3
1.58,1.43,3
1.61,1.38,3
1.6,1.34,3
1.58,1.41,3
1.59,1.4,3
1.6,1.33,3
1.57,1.38,3
1.57,1.41,3
1.59,1.33,3
1.58,1.35,3
1.57,1.4,3
1.59,1.35,3
1.58,1.32,3
1.55,1.38,3
1.57,1.37,3
1.58,1.3,3
1.56,1.34,3
1.57,1.37,3
1.59,1.29,3
1.57,1.29,3
1.55,1.35,3
1.57,1.3,3
1.56,1.27,3
1.53,1.34,3
1.54,1.33,3
1.55,1.27,3
1.52,1.31,3
1.53,1.33,3
1.55,1.25,3
1.53,1.26,3
1.52,1.32,3
1.54,1.27,3
1.54,1.23,3
1.51,1.3,3
1.52,1.28,3
1.54,1.21,3
1.51,1.25,3
1.51,1.28,3
1.53,1.21,3
1.52,1.22,3
1.5,1.28,3
1.53,1.22,3
1.53,1.19,3
1.51,1.25,3
1.52,1.23,3
1.54,1.16,3
1.51,1.21,3
1.52,1.24,3
1.54,1.17,3
1.52,1.18,3
1.51,1.23,3
1.53,1.18,3
1.53,1.15,3
1.5,1.21,3
1.52,1.2,3
1.53,1.13,3
1.51,1.18,3
1.52,1.2,3
1.54,1.12,3
1.52,1.13,3
1.51,1.19,3
1.54,1.14,3
1.53,1.11,3
1.51,1.18,3
1.52,1.17,3
1.54,1.1,3
1.52,1.14,3
1.52,1.17,3
1.54,1.1,3
1.52,1.11,3
1.5,1.17,3
1.52,1.11,3
1.51,1.08,3
1.48,1.15,3
1.49,1.13,3
1.5,1.06,3
1.47,1.1,3
1.48,1.13,3
1.5,1.06,3
1.49,1.07,3
1.48,1.13,3
1.5,1.08,3
1.5,1.05,3
1.49,1.11,3
1.51,1.09,3
1.52,1.03,3
1.5,1.07,3
1.51,1.09,3
1.54,1.02,3
1.52,1.02,3
1.51,1.08,3
1.53,1.03,3
1.52,1.01,3
1.5,1.08,3
1.52,1.06,3
1.53,0.99,3
1.51,1.03,3
1.51,1.05,3
1.53,0.97,3
1.52,0.99,3
1.5,1.05,3
1.53,1.0,3
1.52,0.97,3
1.5,1.04,3
1.51,1.01,3
1.53,0.94,3
1.5,0.98,3
1.51,1.0,3
1.52,0.92,3
1.51,0.94,3
1.49,1.0,3
1.52,0.95,3
1.51,0.92,3
1.49,0.98,3
1.51,0.95,3
1.52,0.88,3
1.49,0.93,3
1.5,0.95,3
1.52,0.88,3
1.5,0.9,3
1.49,0.95,3
1.51,0.89,3
1.5,0.86,3
1.48,0.93,3
1.49,0.91,3
1.5,0.85,3
1.48,0.89,3
1.48,0.92,3
1.5,0.84,3
1.48,0.85,3
1.47,0.91,3
1.49,0.85,3
1.49,0.82,3
1.46,0.89,3
1.48,0.87,3
1.49,0.81,3
1.47,0.85,3
1.48,0.87,3
1.5,0.8,3
1.49,0.81,3
1.47,0.87,3
1.49,0.82,3
1.48,0.79,3
1.46,0.85,3
1.48,0.82,3
1.49,0.75,3
1.46,0.79,3
1.47,0.81,3
1.48,0.74,3
1.46,0.76,3
1.45,0.82,3
1.47,0.76,3
1.47,0.73,3
1.45,0.8,3
1.47,0.77,3
1.48,0.71,3
1.46,0.76,3
1.47,0.79,3
1.49,0.72,3
1.47,0.76,3
1.46,0.82,3
1.49,0.79,3
1.48,0.77,3
1.46,0.85,3
1.48,0.84,3
1.5,0.79,3
1.47,0.86,3
1.48,0.9,3
1.5,0.85,3
1.49,0.89,3
1.47,0.97,3
1.5,0.94,3
1.49,0.93,3
1.47,1.01,3
1.49,1.0,3
1.5,0.96,3
1.47,1.02,3
1.48,1.05,3
1.5,0.99,3
1.48,1.03,3
1.47,1.1,3
1.5,1.06,3
1.49,1.05,3
1.47,1.13,3
1.49,1.11,3
1.49,1.06,3
1.47,1.12,3
1.47,1.14,3
1.49,1.08,3
1.48,1.1,3
1.47,1.16,3
1.49,1.11,3
1.49,1.08,3
1.47,1.15,3
1.48,1.13,3
1.5,1.07,3
1.47,1.13,3
1.48,1.15,3
1.5,1.08,3
1.49,1.1,3
1.48,1.16,3
1.51,1.1,3
1.5,1.07,3
1.48,1.13,3
1.5,1.11,3
1.51,1.05,3
1.48,1.1,3
1.49,1.13,3
1.51,1.06,3
1.5,1.08,3
1.48,1.14,3
1.51,1.07,3
1.5,1.04,3
1.48,1.11,3
1.5,1.09,3
1.52,1.03,3
1.49,1.09,3
1.5,1.12,3
1.51,1.05,3
1.5,1.07,3
1.48,1.12,3
1.5,1.06,3
1.49,1.04,3
1.47,1.11,3
1.49,1.09,3
1.5,1.03,3
1.47,1.08,3
1.48,1.11,3
1.5,1.03,3
1.49,1.04,3
1.48,1.1,3
1.5,1.04,3
1.5,1.01,3
1.48,1.08,3
1.49,1.05,3
1.5,1.0,3
1.47,1.05,3
1.48,1.07,3
1.5,0.99,3
1.48,1.01,3
1.46,1.07,3
1.49,1.01,3
1.49,0.99,3
1.48,1.06,3
1.5,1.04,3
1.52,0.99,3
1.49,1.05,3
1.5,1.07,3
1.51,1.0,3
1.5,1.02,3
1.49,1.07,3
1.52,1.01,3
1.52,0.98,3
1.51,1.05,3
1.52,1.03,3
1.54,0.97,3
1.51,1.02,3
1.51,1.04,3
1.53,0.96,3
1.52,0.97,3
1.5,1.03,3
1.53,0.96,3
1.52,0.93,3
1.5,1.0,3
1.51,0.97,3
1.52,0.92,3
1.5,0.97,3
1.51,0.98,3
1.53,0.91,3
1.51,0.93,3
1.5,0.99,3
1.53,0.93,3
1.52,0.91,3
1.5,0.97,3
1.52,0.94,3
1.53,0.87,3
1.5,0.89,3
1.51,0.89,3
1.54,0.79,3
1.53,0.78,3
1.52,0.8,3
1.56,0.71,3
1.55,0.64,3
1.53,0.67,3
1.54,0.61,3
1.56,0.52,3
1.52,0.54,3
1.53,0.53,3
1.55,0.43,3
1.53,0.42,3
1.52,0.44,3
1.55,0.36,3
1.54,0.32,3
1.53,0.37,3
1.54,0.34,3
1.55,0.27,3
1.52,0.32,3
1.52,0.33,3
1.53,0.25,3
1.51,0.26,3
1.49,0.3,3
1.52,0.24,3
1.51,0.22,3
1.49,0.29,3
1.51,0.27,3
1.52,0.23,3
1.49,0.28,3
1.5,0.3,3
1.51,0.23,3
1.5,0.25,3
1.49,0.31,3
1.52,0.26,3
1.52,0.24,3
1.5,0.32,3
1.52,0.3,3
1.54,0.26,3
1.51,0.32,3
1.52,0.34,3
1.54,0.28,3
1.52,0.3,3
1.51,0.36,3
1.54,0.31,3
1.54,0.29,3
1.52,0.37,3
1.53,0.35,3
1.54,0.3,3
1.51,0.37,3
1.52,0.38,3
1.54,0.32,3
1.52,0.34,3
1.51,0.4,3
1.54,0.34,3
1.54,0.33,3
1.52,0.4,3
1.53,0.38,3
1.55,0.32,3
1.52,0.38,3
1.52,0.4,3
1.54,0.33,3
1.53,0.35,3
1.52,0.4,3
1.55,0.34,3
1.55,0.32,3
1.53,0.39,3
1.54,0.37,3
1.56,0.32,3
1.53,0.38,3
1.54,0.4,3
1.56,0.33,3
1.54,0.36,3
1.53,0.41,3
1.55,0.35,3
1.54,0.33,3
1.52,0.4,3
1.54,0.38,3
1.55,0.32,3
1.53,0.38,3
1.54,0.4,3
1.56,0.33,3
1.54,0.36,3
1.53,0.41,3
1.56,0.35,3
1.55,0.34,3
1.53,0.4,3
1.55,0.38,3
1.56,0.32,3
1.53,0.37,3
1.53,0.39,3
1.55,0.33,3
1.54,0.35,3
1.52,0.41,3
1.55,0.34,3
1.55,0.32,3
1.53,0.39,3
1.54,0.36,3
1.56,0.3,3
1.53,0.37,3
1.54,0.39,3
1.56,0.31,3
1.55,0.34,3
1.54,0.39,3
1.57,0.34,3
1.56,0.32,3
1.54,0.39,3
1.56,0.37,3
1.57,0.31,3
1.55,0.37,3
1.55,0.39,3
1.57,0.31,3
1.55,0.34,3
1.54,0.4,3
1.57,0.34,3
1.57,0.32,3
1.55,0.39,3
1.57,0.37,3
1.58,0.31,3
1.55,0.37,3
1.55,0.38,3
1.57,0.32,3
1.55,0.34,3
1.54,0.39,3
1.58,0.33,3
1.57,0.31,3
1.55,0.38,3
1.56,0.35,3
1.57,0.3,3
1.53,0.36,3
1.54,0.38,3
1.56,0.31,3
1.54,0.33,3
1.53,0.39,3
1.56,0.33,3
1.55,0.32,3
1.54,0.39,3
1.55,0.36,3
1.57,0.3,3
1.54,0.36,3
1.55,0.37,3
1.57,0.31,3
1.55,0.34,3
1.54,0.39,3
1.57,0.33,3
1.56,0.32,3
1.55,0.38,3
1.56,0.36,3
1.57,0.31,3
1.55,0.37,3
1.56,0.38,3
1.57,0.31,3
1.56,0.33,3
1.55,0.38,3
1.57,0.32,3
1.57,0.31,3
1.55,0.38,3
1.56,0.35,3
1.57,0.29,3
1.54,0.36,3
1.55,0.36,3
1.57,0.29,3
1.56,0.32,3
1.55,0.37,3
1.58,0.31,3
1.57,0.3,3
1.56,0.37,3
1.57,0.35,3
1.58,0.29,3
1.56,0.35,3
1.56,0.36,3
1.58,0.29,3
1.56,0.32,3
1.55,0.37,3
1.58,0.32,3
1.57,0.31,3
1.55,0.38,3
1.57,0.35,3
1.58,0.3,3
1.56,0.36,3
1.56,0.37,3
1.58,0.31,3
1.56,0.34,3
1.55,0.4,3
1.57,0.34,3
1.57,0.33,3
1.55,0.4,3
1.56,0.37,3
1.57,0.31,3
1.54,0.37,3
1.55,0.39,3
1.57,0.32,3
1.55,0.36,3
1.54,0.42,3
1.57,0.36,3
1.56,0.35,3
1.55,0.42,3
1.56,0.38,3
1.57,0.33,3
1.54,0.39,3
1.55,0.4,3
1.57,0.33,3
1.55,0.36,3
1.54,0.41,3
1.57,0.36,3
1.56,0.35,3
1.55,0.42,3
1.56,0.39,3
1.58,0.33,3
1.55,0.4,3
1.55,0.41,3
1.57,0.35,3
1.55,0.38,3
1.54,0.43,3
1.56,0.36,3
1.55,0.35,3
1.53,0.42,3
1.55,0.39,3
1.56,0.33,4
1.53,0.39,4
1.54,0.4,4
1.55,0.33,4
1.54,0.36,4
1.53,0.41,4
1.55,0.34,4
1.54,0.33,4
1.52,0.4,4
1.54,0.37,4
1.55,0.32,4
1.53,0.39,4
1.53,0.4,4
1.55,0.33,4
1.53,0.36,4
1.52,0.41,4
1.54,0.35,4
1.54,0.33,4
1.53,0.4,4
1.54,0.38,4
1.56,0.33,4
1.54,0.39,4
1.54,0.4,4
1.56,0.34,4
1.54,0.37,4
1.53,0.42,4
1.55,0.36,4
1.54,0.34,4
1.53,0.41,4
1.54,0.38,4
1.55,0.33,4
1.52,0.39,4
1.52,0.4,4
1.53,0.33,4
1.51,0.37,4
1.5,0.42,4
1.52,0.36,4
1.51,0.34,4
1.49,0.41,4
1.5,0.38,4
1.51,0.33,4
1.48,0.39,4
1.49,0.4,4
1.5,0.33,4
1.49,0.36,4
1.48,0.41,4
1.51,0.35,4
1.5,0.34,4
1.48,0.41,4
1.5,0.38,4
1.51,0.33,4
1.48,0.39,4
1.48,0.4,4
1.5,0.34,4
1.49,0.36,4
1.48,0.42,4
1.5,0.35,4
1.5,0.34,4
1.48,0.41,4
1.49,0.38,4
1.5,0.33,4
1.47,0.4,4
1.48,0.41,4
1.49,0.34,4
1.47,0.37,4
1.46,0.43,4
1.48,0.37,4
1.47,0.36,4
1.45,0.42,4
1.47,0.39,4
1.48,0.34,4
1.46,0.4,4
1.47,0.41,4
1.48,0.34,4
1.46,0.38,4
1.45,0.43,4
1.48,0.36,4
1.47,0.36,4
1.45,0.42,4
1.46,0.39,4
1.47,0.34,4
1.45,0.4,4
1.45,0.41,4
1.47,0.34,4
1.46,0.36,4
1.44,0.42,4
1.47,0.35,4
1.46,0.35,4
1.44,0.42,4
1.45,0.39,4
1.46,0.34,4
1.43,0.4,4
1.44,0.41,4
1.45,0.35,4
1.44,0.38,4
1.43,0.43,4
1.45,0.37,4
1.44,0.36,4
1.43,0.42,4
1.44,0.39,4
1.45,0.34,4
1.42,0.4,4
1.43,0.41,4
1.45,0.34,4
1.43,0.37,4
1.42,0.43,4
1.44,0.36,4
1.43,0.35,4
1.41,0.42,4
1.42,0.39,4
1.44,0.33,4
1.41,0.4,4
1.42,0.42,4
1.44,0.35,4
1.43,0.39,4
1.42,0.44,4
1.45,0.38,4
1.44,0.37,4
1.42,0.43,4
1.43,0.4,4
1.44,0.35,4
1.41,0.42,4
1.42,0.43,4
1.43,0.37,4
1.42,0.4,4
1.4,0.44,4
1.43,0.37,4
1.42,0.36,4
1.4,0.43,4
1.41,0.4,4
1.42,0.36,4
1.4,0.42,4
1.4,0.43,4
1.41,0.37,4
1.4,0.4,4
1.39,0.45,4
1.42,0.38,4
1.42,0.37,4
1.4,0.44,4
1.42,0.41,4
1.42,0.36,4
1.39,0.43,4
1.4,0.44,4
1.42,0.37,4
1.4,0.4,4
1.39,0.45,4
1.42,0.38,4
1.41,0.37,4
1.4,0.45,4
1.42,0.42,4
1.43,0.37,4
1.41,0.44,4
1.42,0.45,4
1.43,0.39,4
1.42,0.42,4
1.41,0.47,4
1.43,0.41,4
1.42,0.4,4
1.4,0.47,4
1.42,0.44,4
1.43,0.4,4
1.4,0.47,4
1.42,0.47,4
1.43,0.4,4
1.42,0.43,4
1.41,0.49,4
1.44,0.42,4
1.43,0.42,4
1.42,0.49,4
1.44,0.45,4
1.45,0.4,4
1.42,0.46,4
1.43,0.46,4
1.44,0.39,4
1.43,0.43,4
1.42,0.47,4
1.45,0.41,4
1.44,0.4,4
1.42,0.47,4
1.44,0.44,4
1.45,0.39,4
1.42,0.45,4
1.43,0.46,4
1.44,0.39,4
1.42,0.43,4
1.41,0.48,4
1.44,0.42,4
1.44,0.42,4
1.43,0.48,4
1.44,0.45,4
1.45,0.4,4
1.42,0.47,4
1.43,0.48,4
1.44,0.42,4
1.42,0.45,4
1.42,0.5,4
1.44,0.43,4
1.43,0.42,4
1.42,0.49,4
1.43,0.46,4
1.44,0.41,4
1.41,0.48,4
1.42,0.49,4
1.43,0.43,4
1.42,0.46,4
1.41,0.51,4
1.43,0.44,4
1.43,0.43,4
1.41,0.5,4
1.43,0.47,4
1.44,0.43,4
1.41,0.49,4
1.41,0.5,4
1.43,0.43,4
1.41,0.46,4
1.4,0.5,4
1.43,0.44,4
1.42,0.44,4
1.4,0.51,4
1.42,0.48,4
1.43,0.43,4
1.4,0.5,4
1.42,0.5,4
1.43,0.43,4
1.41,0.46,4
1.4,0.51,4
1.43,0.45,4
1.41,0.45,4
1.4,0.52,4
1.42,0.49,4
1.43,0.45,4
1.4,0.51,4
1.41,0.52,4
1.42,0.45,4
1.41,0.48,4
1.4,0.52,4
1.43,0.45,4
1.42,0.45,4
1.4,0.53,4
1.42,0.49,4
1.42,0.45,4
1.4,0.51,4
1.4,0.51,4
1.42,0.44,4
1.4,0.47,4
1.4,0.52,4
1.43,0.46,4
1.42,0.46,4
1.41,0.53,4
1.43,0.49,4
1.44,0.44,4
1.41,0.51,4
1.42,0.51,4
1.43,0.45,4
1.41,0.49,4
1.41,0.54,4
1.44,0.48,4
1.43,0.48,4
1.41,0.55,4
1.43,0.52,4
1.43,0.48,4
1.4,0.56,4
1.41,0.58,4
1.42,0.54,4
1.39,0.6,4
1.39,0.66,4
1.41,0.61,4
1.4,0.63,4
1.39,0.71,4
1.41,0.69,4
1.42,0.67,4
1.39,0.76,4
1.41,0.78,4
1.42,0.73,4
1.41,0.78,4
1.41,0.84,4
1.43,0.78,4
1.42,0.8,4
1.41,0.88,4
1.43,0.87,4
1.44,0.83,4
1.41,0.91,4
1.42,0.93,4
1.43,0.87,4
1.4,0.92,4
1.4,0.97,4
1.43,0.92,4
1.42,0.93,4
1.4,1.0,4
1.42,0.98,4
1.42,0.94,4
1.39,1.01,4
1.41,1.02,4
1.42,0.95,4
1.41,0.99,4
1.41,1.04,4
1.44,0.98,4
1.43,0.98,4
1.41,1.05,4
1.43,1.02,4
1.44,0.98,4
1.41,1.05,4
1.42,1.05,4
1.43,0.99,4
1.41,1.03,4
1.41,1.07,4
1.43,1.0,4
1.42,1.01,4
1.41,1.07,4
1.42,1.03,4
1.43,0.99,4
1.4,1.06,4
1.41,1.07,4
1.43,1.0,4
1.41,1.04,4
1.41,1.09,4
1.43,1.03,4
1.42,1.03,4
1.4,1.1,4
1.42,1.07,4
1.43,1.03,4
1.4,1.09,4
1.41,1.09,4
1.43,1.03,4
1.41,1.06,4
1.41,1.1,4
1.43,1.03,4
1.42,1.04,4
1.41,1.1,4
1.43,1.07,4
1.43,1.02,4
1.41,1.09,4
1.42,1.1,4
1.44,1.03,4
1.42,1.07,4
1.42,1.11,4
1.44,1.04,4
1.43,1.03,4
1.42,1.09,4
1.44,1.06,4
1.43,1.02,4
1.41,1.09,4
1.42,1.1,4
1.43,1.03,4
1.41,1.07,4
1.42,1.11,4
1.44,1.04,4
1.44,1.05,4
1.43,1.11,4
1.44,1.08,4
1.44,1.04,4
1.41,1.11,4
1.42,1.11,4
1.44,1.05,4
1.42,1.08,4
1.43,1.12,4
1.45,1.06,4
1.44,1.06,4
1.43,1.12,4
1.45,1.09,4
1.45,1.05,4
1.43,1.12,4
1.44,1.12,4
1.45,1.05,4
1.43,1.1,4
1.43,1.14,4
1.45,1.07,4
1.45,1.08,4
1.43,1.14,4
1.45,1.1,4
1.45,1.06,4
1.42,1.13,4
1.44,1.14,4
1.45,1.07,4
1.43,1.12,4
1.43,1.16,4
1.46,1.08,4
1.44,1.08,4
1.43,1.13,4
1.46,1.08,4
1.47,1.02,4
1.44,1.07,4
1.45,1.03,4
1.47,0.94,4
1.44,0.95,4
1.44,0.95,4
1.47,0.85,4
1.46,0.82,4
1.45,0.85,4
1.47,0.77,4
1.46,0.69,4
1.43,0.72,4
1.45,0.69,4
1.45,0.59,4
1.43,0.62,4
1.44,0.64,4
1.45,0.54,4
1.44,0.53,4
1.43,0.57,4
1.45,0.5,4
1.44,0.44,4
1.42,0.5,4
1.44,0.49,4
1.45,0.43,4
1.43,0.47,4
1.44,0.51,4
1.46,0.44,4
1.45,0.45,4
1.44,0.51,4
1.46,0.48,4
1.46,0.45,4
1.43,0.53,4
1.44,0.53,4
1.46,0.48,4
1.43,0.53,4
1.43,0.57,4
1.46,0.51,4
1.44,0.52,4
1.43,0.59,4
1.45,0.55,4
1.45,0.52,4
1.43,0.6,4
1.44,0.6,4
1.45,0.54,4
1.43,0.59,4
1.42,0.63,4
1.45,0.56,4
1.43,0.57,4
1.42,0.64,4
1.44,0.61,4
1.43,0.57,4
1.41,0.65,4
1.41,0.65,4
1.43,0.59,4
1.41,0.63,4
1.41,0.67,4
1.44,0.59,4
1.43,0.6,4
1.42,0.67,4
1.44,0.63,4
1.44,0.6,4
1.41,0.67,4
1.42,0.67,4
1.43,0.61,4
1.4,0.65,4
1.4,0.69,4
1.43,0.63,4
1.42,0.64,4
1.41,0.71,4
1.43,0.68,4
1.43,0.65,4
1.41,0.73,4
1.42,0.72,4
1.44,0.66,4
1.42,0.7,4
1.42,0.74,4
1.45,0.67,4
1.43,0.68,4
1.42,0.74,4
1.44,0.7,4
1.44,0.67,4
1.41,0.74,4
1.43,0.74,4
1.44,0.67,4
1.42,0.71,4
1.42,0.75,4
1.45,0.68,4
1.43,0.68,4
1.42,0.75,4
1.44,0.7,4
1.44,0.67,4
1.41,0.74,4
1.42,0.73,4
1.44,0.67,4
1.42,0.72,4
1.42,0.76,4
1.44,0.69,4
1.42,0.69,4
1.41,0.75,4
1.43,0.7,4
1.43,0.66,4
1.4,0.73,4
1.42,0.71,4
1.43,0.65,4
1.41,0.69,4
1.41,0.74,4
1.43,0.68,4
1.43,0.69,4
1.42,0.76,4
1.44,0.72,4
1.44,0.68,4
1.41,0.74,4
1.42,0.74,4
1.44,0.69,4
1.42,0.73,4
1.43,0.77,4
1.46,0.69,4
1.45,0.69,4
1.44,0.74,4
1.46,0.7,4
1.46,0.67,4
1.43,0.74,4
1.45,0.74,4
1.46,0.69,4
1.44,0.73,4
1.44,0.77,4
1.47,0.69,4
1.46,0.69,4
1.44,0.75,4
1.47,0.71,4
1.46,0.68,4
1.43,0.75,4
1.44,0.75,4
1.45,0.69,4
1.42,0.74,4
1.42,0.77,4
1.45,0.7,4
1.44,0.71,4
1.42,0.78,4
1.44,0.73,4
1.44,0.7,4
1.41,0.77,4
1.42,0.77,4
1.44,0.7,4
1.42,0.75,4
1.42,0.78,4
1.45,0.71,4
1.44,0.72,4
1.42,0.78,4
1.44,0.74,4
1.44,0.7,4
1.41,0.78,4
1.42,0.77,4
1.44,0.7,4
1.42,0.74,4
1.43,0.77,4
1.45,0.7,4
1.44,0.71,4
1.43,0.77,4
1.45,0.73,4
1.44,0.7,4
1.42,0.77,4
1.43,0.75,4
1.44,0.69,4
1.41,0.73,4
1.42,0.77,4
1.44,0.69,4
1.43,0.71,4
1.41,0.77,4
1.43,0.73,4
1.43,0.7,4
1.4,0.78,4
1.42,0.77,4
1.43,0.71,4
1.41,0.75,4
1.41,0.78,4
1.43,0.72,4
1.42,0.73,4
1.41,0.79,4
1.43,0.75,4
1.43,0.72,4
1.41,0.79,4
1.42,0.78,4
1.44,0.72,4
1.42,0.76,4
1.42,0.79,4
1.45,0.72,4
1.43,0.73,4
1.42,0.79,4
1.44,0.74,4
1.43,0.71,4
1.41,0.78,4
1.43,0.78,4
1.44,0.72,4
1.42,0.77,4
1.43,0.81,4
1.46,0.74,4
1.44,0.75,4
1.43,0.81,4
1.46,0.77,4
1.45,0.73,4
1.43,0.8,4
1.45,0.79,4
1.46,0.73,4
1.44,0.78,4
1.45,0.81,4
1.47,0.74,4
1.45,0.75,4
1.44,0.81,4
1.46,0.77,5
1.45,0.74,5
1.43,0.81,5
1.44,0.8,5
1.45,0.73,5
1.43,0.78,5
1.43,0.81,5
1.46,0.75,5
1.45,0.76,5
1.43,0.82,5
1.46,0.78,5
1.46,0.74,5
1.43,0.81,5
1.45,0.8,5
1.46,0.74,5
1.44,0.79,5
1.44,0.82,5
1.46,0.75,5
1.45,0.76,5
1.44,0.82,5
1.46,0.77,5
1.46,0.74,5
1.44,0.81,5
1.45,0.81,5
1.47,0.75,5
1.44,0.8,5
1.45,0.83,5
1.47,0.76,5
1.46,0.76,5
1.44,0.82,5
1.47,0.77,5
1.46,0.74,5
1.44,0.81,5
1.45,0.81,5
1.46,0.75,5
1.44,0.8,5
1.45,0.84,5
1.47,0.76,5
1.46,0.77,5
1.45,0.83,5
1.47,0.77,5
1.46,0.74,5
1.44,0.82,5
1.45,0.81,5
1.47,0.75,5
1.44,0.8,5
1.45,0.83,5
1.47,0.76,5
1.45,0.77,5
1.44,0.83,5
1.46,0.78,5
1.45,0.75,5
1.43,0.82,5
1.44,0.81,5
1.45,0.74,5
1.42,0.79,5
1.43,0.82,5
1.45,0.75,5
1.43,0.75,5
1.42,0.81,5
1.45,0.76,5
1.44,0.73,5
1.42,0.8,5
1.44,0.8,5
1.45,0.74,5
1.43,0.79,5
1.43,0.83,5
1.45,0.76,5
1.43,0.76,5
1.42,0.82,5
1.45,0.77,5
1.44,0.73,5
1.42,0.79,5
1.44,0.78,5
1.44,0.71,5
1.42,0.75,5
1.43,0.78,5
1.45,0.7,5
1.44,0.71,5
1.43,0.77,5
1.45,0.72,5
1.45,0.69,5
1.42,0.77,5
1.44,0.76,5
1.45,0.7,5
1.43,0.75,5
1.44,0.78,5
1.46,0.71,5
1.44,0.72,5
1.43,0.78,5
1.45,0.74,5
1.45,0.71,5
1.43,0.78,5
1.44,0.77,5
1.45,0.71,5
1.43,0.75,5
1.44,0.78,5
1.46,0.71,5
1.44,0.73,5
1.43,0.8,5
1.46,0.76,5
1.45,0.73,5
1.43,0.8,5
1.44,0.78,5
1.45,0.71,5
1.43,0.76,5
1.44,0.8,5
1.46,0.72,5
1.45,0.74,5
1.44,0.79,5
1.46,0.74,5
1.45,0.71,5
1.43,0.77,5
1.44,0.76,5
1.45,0.7,5
1.42,0.74,5
1.43,0.77,5
1.45,0.7,5
1.44,0.72,5
1.42,0.78,5
1.45,0.74,5
1.44,0.71,5
1.42,0.78,5
1.43,0.76,5
1.45,0.7,5
1.43,0.75,5
1.44,0.77,5
1.45,0.7,5
1.43,0.72,5
1.42,0.78,5
1.45,0.73,5
1.44,0.7,5
1.42,0.77,5
1.43,0.75,5
1.44,0.68,5
1.42,0.73,5
1.42,0.77,5
1.44,0.7,5
1.43,0.71,5
1.41,0.77,5
1.44,0.72,5
1.43,0.68,5
1.41,0.75,5
1.43,0.74,5
1.44,0.69,5
1.42,0.74,5
1.43,0.77,5
1.45,0.7,5
1.43,0.71,5
1.42,0.77,5
1.44,0.72,5
1.44,0.69,5
1.42,0.77,5
1.45,0.75,5
1.46,0.69,5
1.44,0.74,5
1.45,0.77,5
1.47,0.69,5
1.45,0.71,5
1.44,0.77,5
1.47,0.72,5
1.46,0.69,5
1.44,0.76,5
1.46,0.74,5
1.46,0.68,5
1.44,0.74,5
1.44,0.77,5
1.46,0.7,5
1.45,0.72,5
1.44,0.77,5
1.46,0.72,5
1.45,0.69,5
1.43,0.76,5
1.45,0.75,5
1.46,0.69,5
1.43,0.75,5
1.44,0.77,5
1.47,0.7,5
1.45,0.72,5
1.44,0.78,5
1.47,0.73,5
1.46,0.71,5
1.44,0.78,5
1.46,0.76,5
1.47,0.71,5
1.45,0.76,5
1.45,0.8,5
1.47,0.73,5
1.45,0.75,5
1.44,0.81,5
1.47,0.76,5
1.46,0.73,5
1.44,0.8,5
1.46,0.79,5
1.47,0.73,5
1.44,0.79,5
1.45,0.81,5
1.48,0.74,5
1.46,0.75,5
1.45,0.81,5
1.48,0.75,5
1.47,0.73,5
1.45,0.8,5
1.47,0.79,5
1.48,0.73,5
1.45,0.79,5
1.46,0.81,5
1.47,0.74,5
1.46,0.76,5
1.44,0.81,5
1.47,0.75,5
1.47,0.72,5
1.45,0.79,5
1.47,0.77,5
1.48,0.71,5
1.46,0.77,5
1.47,0.79,5
1.49,0.72,5
1.47,0.74,5
1.46,0.79,5
1.49,0.73,5
1.48,0.71,5
1.46,0.78,5
1.48,0.77,5
1.49,0.71,5
1.46,0.77,5
1.47,0.79,5
1.49,0.71,5
1.47,0.73,5
1.46,0.78,5
1.49,0.73,5
1.48,0.7,5
1.46,0.77,5
1.48,0.76,5
1.5,0.7,5
1.47,0.76,5
1.48,0.78,5
1.5,0.7,5
1.49,0.72,5
1.47,0.78,5
1.5,0.73,5
1.5,0.7,5
1.48,0.78,5
1.49,0.76,5
1.5,0.71,5
1.48,0.76,5
1.48,0.78,5
1.5,0.7,5
1.49,0.72,5
1.47,0.77,5
1.5,0.72,5
1.49,0.71,5
1.48,0.79,5
1.49,0.79,5
1.5,0.75,5
1.48,0.83,5
1.49,0.88,5
1.5,0.83,5
1.49,0.86,5
1.49,0.94,5
1.51,0.9,5
1.5,0.9,5
1.48,0.98,5
1.49,0.98,5
1.5,0.94,5
1.47,1.01,5
1.48,1.05,5
1.5,0.98,5
1.48,1.02,5
1.46,1.09,5
1.49,1.05,5
1.48,1.05,5
1.46,1.14,5
1.47,1.14,5
1.49,1.09,5
1.46,1.16,5
1.47,1.2,5
1.49,1.13,5
1.47,1.17,5
1.47,1.24,5
1.5,1.2,5
1.49,1.19,5
1.47,1.28,5
1.48,1.26,5
1.48,1.21,5
1.45,1.27,5
1.46,1.3,5
1.48,1.24,5
1.47,1.27,5
1.47,1.34,5
1.5,1.29,5
1.49,1.28,5
1.48,1.36,5
1.49,1.35,5
1.5,1.3,5
1.48,1.36,5
1.49,1.39,5
1.5,1.33,5
1.49,1.35,5
1.48,1.41,5
1.51,1.37,5
1.5,1.35,5
1.48,1.42,5
1.5,1.41,5
1.51,1.35,5
1.48,1.4,5
1.49,1.42,5
1.51,1.35,5
1.49,1.37,5
1.48,1.43,5
1.51,1.38,5
1.5,1.36,5
1.48,1.44,5
1.5,1.42,5
1.52,1.37,5
1.5,1.43,5
1.51,1.46,5
1.53,1.4,5
1.52,1.43,5
1.51,1.49,5
1.53,1.43,5
1.53,1.41,5
1.51,1.48,5
1.53,1.46,5
1.54,1.41,5
1.51,1.47,5
1.52,1.5,5
1.53,1.45,5
1.52,1.48,5
1.51,1.53,5
1.54,1.48,5
1.53,1.46,5
1.51,1.53,5
1.53,1.51,5
1.54,1.46,5
1.5,1.52,5
1.51,1.54,5
1.53,1.47,5
1.51,1.5,5
1.5,1.56,5
1.53,1.52,5
1.52,1.5,5
1.5,1.57,5
1.51,1.55,5
1.52,1.48,5
1.5,1.51,5
1.51,1.5,5
1.54,1.41,5
1.53,1.41,5
1.52,1.44,5
1.55,1.35,5
1.54,1.29,5
1.53,1.33,5
1.55,1.28,5
1.56,1.19,5
1.53,1.23,5
1.53,1.22,5
1.55,1.13,5
1.53,1.13,5
1.52,1.16,5
1.55,1.09,5
1.54,1.06,5
1.52,1.12,5
1.52,1.09,5
1.54,1.03,5
1.5,1.08,5
1.51,1.09,5
1.52,1.02,5
1.51,1.04,5
1.49,1.1,5
1.52,1.05,5
1.51,1.04,5
1.48,1.13,5
1.49,1.11,5
1.5,1.06,5
1.47,1.13,5
1.47,1.16,5
1.49,1.09,5
1.48,1.13,5
1.47,1.2,5
1.5,1.16,5
1.49,1.15,5
1.47,1.24,5
1.49,1.23,5
1.5,1.18,5
1.48,1.25,5
1.48,1.28,5
1.5,1.21,5
1.49,1.24,5
1.47,1.31,5
1.5,1.26,5
1.49,1.25,5
1.48,1.33,5
1.49,1.32,5
1.5,1.27,5
1.47,1.34,5
1.48,1.36,5
1.49,1.3,5
1.47,1.33,5
1.46,1.39,5
1.49,1.34,5
1.48,1.32,5
1.46,1.4,5
1.48,1.39,5
1.49,1.34,5
1.46,1.4,5
1.47,1.42,5
1.48,1.35,5
1.46,1.38,5
1.45,1.44,5
1.47,1.39,5
1.46,1.38,5
1.45,1.45,5
1.47,1.44,5
1.48,1.39,5
1.46,1.45,5
1.47,1.48,5
1.49,1.41,5
1.48,1.44,5
1.46,1.49,5
1.49,1.44,5
1.48,1.42,5
1.46,1.49,5
1.48,1.48,5
1.49,1.43,5
1.46,1.49,5
1.46,1.51,5
1.48,1.44,5
1.47,1.46,5
1.47,1.51,5
1.5,1.46,5
1.49,1.44,5
1.48,1.52,5
1.49,1.5,5
1.51,1.44,5
1.48,1.5,5
1.48,1.52,5
1.5,1.45,5
1.48,1.47,5
1.47,1.53,5
1.5,1.47,5
1.49,1.46,5
1.47,1.53,5
1.48,1.51,5
1.5,1.45,5
1.47,1.51,5
1.48,1.52,5
1.5,1.45,5
1.49,1.47,5
1.47,1.53,5
1.51,1.47,5
1.5,1.46,5
1.48,1.53,5
1.49,1.5,5
1.5,1.44,5
1.47,1.5,5
1.48,1.51,5
1.5,1.44,5
1.48,1.47,5
1.47,1.53,5
1.5,1.46,5
1.5,1.45,5
1.49,1.52,5
1.51,1.49,5
1.52,1.44,5
1.49,1.5,5
1.5,1.51,5
1.52,1.44,5
1.5,1.47,5
1.49,1.52,5
1.53,1.46,5
1.52,1.44,5
1.5,1.51,5
1.52,1.49,5
1.53,1.43,5
1.51,1.48,5
1.52,1.5,5
1.54,1.42,5
1.53,1.45,5
1.52,1.5,5
1.55,1.45,5
1.55,1.43,5
1.53,1.5,5
1.55,1.47,5
1.57,1.42,5
1.54,1.47,5
1.54,1.49,5
1.56,1.42,5
1.54,1.44,5
1.53,1.49,5
1.56,1.43,5
1.55,1.42,5
1.52,1.49,5
1.54,1.46,5
1.55,1.41,5
1.52,1.46,5
1.53,1.46,5
1.55,1.39,5
1.53,1.41,5
1.52,1.46,5
1.55,1.41,5
1.54,1.39,5
1.52,1.46,5
1.54,1.43,5
1.55,1.38,5
1.52,1.43,5
1.53,1.45,5
1.55,1.37,5
1.54,1.4,5
1.52,1.45,5
1.55,1.39,5
1.55,1.37,5
1.53,1.44,5
1.54,1.41,5
1.55,1.35,5
1.52,1.4,5
1.53,1.41,5
1.55,1.34,5
1.54,1.36,5
1.53,1.41,5
1.56,1.34,5
1.55,1.33,5
1.54,1.4,5
1.55,1.37,5
1.57,1.31,5
1.54,1.37,5
1.55,1.38,5
1.57,1.3,5
1.55,1.33,5
1.54,1.37,5
1.56,1.31,5
1.56,1.3,5
1.54,1.37,5
1.55,1.34,5
1.56,1.28,5
1.54,1.33,5
1.54,1.34,5
1.56,1.26,5
1.55,1.29,5
1.54,1.35,5
1.57,1.28,5
1.56,1.27,5
1.54,1.33,5
1.56,1.3,5
1.57,1.24,5
1.54,1.3,5
1.54,1.31,5
1.56,1.23,5
1.54,1.26,5
1.52,1.31,5
1.55,1.25,5
1.55,1.23,5
1.54,1.3,5
1.56,1.27,5
1.57,1.21,5
1.53,1.27,5
1.53,1.28,5
1.54,1.2,5
1.52,1.23,5
1.51,1.28,5
1.54,1.21,5
1.54,1.19,5
1.52,1.26,5
1.54,1.22,5
1.55,1.17,5
1.52,1.23,5
1.53,1.24,5
1.54,1.17,5
1.53,1.2,5
1.51,1.24,6
1.54,1.17,6
1.53,1.15,6
1.52,1.22,6
1.53,1.19,6
1.55,1.13,6
1.52,1.19,6
1.53,1.2,6
1.54,1.12,6
1.53,1.14,6
1.51,1.18,6
1.54,1.11,6
1.53,1.1,6
1.51,1.17,6
1.52,1.14,6
1.54,1.09,6
1.5,1.15,6
1.51,1.15,6
1.53,1.07,6
1.51,1.09,6
1.5,1.13,6
1.53,1.07,6
1.52,1.06,6
1.5,1.13,6
1.52,1.09,6
1.53,1.03,6
1.5,1.08,6
1.51,1.09,6
1.53,1.01,6
1.52,1.04,6
1.51,1.09,6
1.54,1.03,6
1.53,1.01,6
1.51,1.08,6
1.52,1.04,6
1.54,0.97,6
1.51,1.02,6
1.52,1.03,6
1.53,0.96,6
1.52,0.98,6
1.51,1.03,6
1.53,0.96,6
1.53,0.94,6
1.51,1.0,6
1.52,0.96,6
1.54,0.91,6
1.5,0.97,6
1.51,0.97,6
1.53,0.9,6
1.51,0.92,6
1.5,0.97,6
1.53,0.91,6
1.52,0.89,6
1.51,0.95,6
1.52,0.92,6
1.53,0.86,6
1.5,0.92,6
1.51,0.93,6
1.52,0.85,6
1.51,0.87,6
1.5,0.92,6
1.52,0.85,6
1.52,0.83,6
1.5,0.89,6
1.52,0.86,6
1.53,0.8,6
1.5,0.86,6
1.51,0.87,6
1.53,0.79,6
1.51,0.82,6
1.5,0.86,6
1.52,0.8,6
1.51,0.78,6
1.5,0.85,6
1.52,0.81,6
1.53,0.75,6
1.5,0.81,6
1.5,0.82,6
1.52,0.74,6
1.5,0.77,6
1.48,0.81,6
1.51,0.75,6
1.5,0.73,6
1.49,0.8,6
1.5,0.77,6
1.51,0.71,6
1.48,0.76,6
1.48,0.77,6
1.49,0.7,6
1.48,0.72,6
1.47,0.77,6
1.5,0.7,6
1.5,0.69,6
1.48,0.75,6
1.5,0.71,6
1.51,0.66,6
1.48,0.72,6
1.49,0.72,6
1.51,0.65,6
1.49,0.67,6
1.48,0.71,6
1.5,0.63,6
1.49,0.62,6
1.48,0.68,6
1.5,0.64,6
1.52,0.6,6
1.49,0.66,6
1.5,0.66,6
1.51,0.58,6
1.48,0.6,6
1.46,0.64,6
1.48,0.57,6
1.47,0.56,6
1.46,0.63,6
1.47,0.61,6
1.48,0.56,6
1.45,0.61,6
1.46,0.61,6
1.47,0.54,6
1.46,0.56,6
1.45,0.61,6
1.49,0.55,6
1.48,0.54,6
1.47,0.6,6
1.49,0.56,6
1.5,0.51,6
1.47,0.56,6
1.48,0.57,6
1.5,0.5,6
1.48,0.54,6
1.48,0.58,6
1.5,0.51,6
1.49,0.49,6
1.47,0.55,6
1.49,0.51,6
1.5,0.46,6
1.48,0.53,6
1.49,0.53,6
1.51,0.46,6
1.5,0.49,6
1.49,0.53,6
1.52,0.46,6
1.51,0.46,6
1.49,0.52,6
1.51,0.49,6
1.51,0.43,6
1.49,0.49,6
1.5,0.49,6
1.52,0.42,6
1.5,0.45,6
1.5,0.5,6
1.53,0.44,6
1.52,0.42,6
1.5,0.48,6
1.52,0.44,6
1.53,0.4,6
1.51,0.46,6
1.51,0.47,6
1.53,0.4,6
1.52,0.44,6
1.5,0.48,6
1.54,0.4,6
1.53,0.39,6
1.51,0.46,6
1.53,0.43,6
1.54,0.38,6
1.51,0.45,6
1.52,0.46,6
1.54,0.38,6
1.52,0.4,6
1.51,0.45,6
1.54,0.38,6
1.53,0.38,6
1.52,0.45,6
1.53,0.42,6
1.54,0.37,6
1.51,0.43,6
1.52,0.42,6
1.53,0.34,6
1.52,0.37,6
1.51,0.41,6
1.54,0.35,6
1.53,0.35,6
1.51,0.42,6
1.53,0.39,6
1.53,0.34,6
1.51,0.4,6
1.52,0.4,6
1.53,0.33,6
1.52,0.36,6
1.51,0.4,6
1.54,0.33,6
1.53,0.33,6
1.51,0.39,6
1.53,0.35,6
1.54,0.3,6
1.51,0.36,6
1.52,0.36,6
1.53,0.29,6
1.52,0.33,6
1.51,0.37,6
1.54,0.3,6
1.53,0.29,6
1.51,0.36,6
1.53,0.32,6
1.53,0.28,6
1.51,0.34,6
1.52,0.35,6
1.53,0.28,6
1.52,0.31,6
1.51,0.35,6
1.54,0.29,6
1.53,0.28,6
1.52,0.34,6
1.54,0.3,6
1.55,0.25,6
1.52,0.31,6
1.52,0.31,6
1.53,0.25,6
1.51,0.29,6
1.51,0.34,6
1.53,0.28,6
1.52,0.28,6
1.51,0.35,6
1.53,0.31,6
1.54,0.27,6
1.52,0.33,6
1.53,0.33,6
1.54,0.27,6
1.53,0.3,6
1.52,0.34,6
1.55,0.27,6
1.54,0.26,6
1.53,0.33,6
1.55,0.29,6
1.55,0.25,6
1.53,0.31,6
1.54,0.31,6
1.55,0.25,6
1.53,0.28,6
1.52,0.33,6
1.54,0.26,6
1.53,0.26,6
1.52,0.32,6
1.54,0.28,6
1.55,0.24,6
1.52,0.3,6
1.53,0.3,6
1.55,0.23,6
1.53,0.27,6
1.52,0.31,6
1.55,0.24,6
1.53,0.24,6
1.52,0.31,6
1.54,0.27,6
1.54,0.23,6
1.52,0.31,6
1.53,0.32,6
1.55,0.27,6
1.52,0.32,6
1.52,0.38,6
1.54,0.33,6
1.54,0.35,6
1.53,0.43,6
1.55,0.41,6
1.55,0.38,6
1.53,0.46,6
1.54,0.48,6
1.55,0.43,6
1.54,0.48,6
1.53,0.54,6
1.56,0.48,6
1.55,0.5,6
1.54,0.59,6
1.55,0.57,6
1.56,0.53,6
1.53,0.62,6
1.54,0.63,6
1.56,0.57,6
1.54,0.62,6
1.53,0.67,6
1.55,0.61,6
1.54,0.62,6
1.52,0.69,6
1.54,0.66,6
1.54,0.62,6
1.52,0.69,6
1.53,0.69,6
1.54,0.63,6
1.53,0.67,6
1.53,0.72,6
1.55,0.66,6
1.54,0.67,6
1.53,0.74,6
1.54,0.7,6
1.55,0.67,6
1.52,0.74,6
1.53,0.74,6
1.55,0.68,6
1.54,0.72,6
1.54,0.77,6
1.56,0.7,6
1.56,0.69,6
1.54,0.76,6
1.57,0.72,6
1.57,0.68,6
1.55,0.75,6
1.56,0.75,6
1.58,0.68,6
1.56,0.72,6
1.55,0.75,6
1.58,0.68,6
1.56,0.68,6
1.55,0.75,6
1.56,0.72,6
1.57,0.68,6
1.54,0.75,6
1.54,0.75,6
1.56,0.68,6
1.54,0.72,6
1.54,0.76,6
1.57,0.7,6
1.56,0.7,6
1.55,0.76,6
1.57,0.73,6
1.57,0.69,6
1.54,0.76,6
1.55,0.76,6
1.56,0.7,6
1.54,0.73,6
1.54,0.77,6
1.57,0.69,6
1.56,0.69,6
1.54,0.76,6
1.56,0.72,6
1.56,0.67,6
1.53,0.75,6
1.55,0.74,6
1.56,0.67,6
1.54,0.71,6
1.54,0.75,6
1.57,0.68,6
1.56,0.68,6
1.55,0.74,6
1.56,0.71,6
1.56,0.67,6
1.53,0.74,6
1.54,0.75,6
1.55,0.68,6
1.53,0.72,6
1.53,0.75,6
1.56,0.68,6
1.55,0.68,6
1.54,0.75,6
1.56,0.71,6
1.56,0.68,6
1.54,0.75,6
1.54,0.75,6
1.55,0.69,6
1.53,0.73,6
1.53,0.77,6
1.56,0.69,6
1.55,0.69,6
1.54,0.76,6
1.56,0.72,6
1.55,0.67,6
1.52,0.74,6
1.53,0.73,6
1.54,0.65,6
1.53,0.66,6
1.52,0.68,6
1.55,0.59,6
1.54,0.56,6
1.52,0.6,6
1.53,0.53,6
1.54,0.46,6
1.51,0.49,6
1.53,0.45,6
1.55,0.36,6
1.53,0.37,6
1.54,0.38,6
1.57,0.28,6
1.55,0.26,6
1.54,0.3,6
1.56,0.23,6
1.55,0.17,6
1.52,0.22,6
1.53,0.2,6
1.54,0.15,6
1.51,0.17,6
1.53,0.2,6
1.55,0.14,6
1.53,0.14,6
1.52,0.17,6
1.53,0.13,6
1.52,0.09,6
1.49,0.14,6
1.5,0.14,6
1.51,0.1,6
1.5,0.14,6
1.5,0.17,6
1.52,0.12,6
1.5,0.13,6
1.48,0.17,6
1.49,0.13,6
1.49,0.1,6
1.47,0.16,6
1.48,0.16,6
1.5,0.11,6
1.48,0.16,6
1.48,0.21,6
1.5,0.15,6
1.49,0.17,6
1.47,0.22,6
1.5,0.19,6
1.49,0.16,6
1.47,0.22,6
1.48,0.22,6
1.49,0.17,6
1.47,0.21,6
1.48,0.26,6
1.5,0.2,6
1.49,0.21,6
1.48,0.28,6
1.51,0.25,6
1.5,0.21,6
1.47,0.28,6
1.48,0.28,6
1.5,0.22,6
1.47,0.26,6
1.48,0.3,6
1.5,0.23,6
1.49,0.24,6
1.48,0.31,6
1.5,0.27,6
1.5,0.23,6
1.47,0.3,6
1.48,0.3,6
1.49,0.24,6
1.48,0.28,6
1.48,0.31,6
1.51,0.24,6
1.5,0.24,6
1.49,0.3,6
1.51,0.26,6
1.51,0.22,6
1.49,0.29,6
1.5,0.29,6
1.51,0.23,6
1.49,0.28,6
1.49,0.32,6
1.52,0.25,6
1.5,0.26,6
1.49,0.32,6
1.51,0.28,6
1.51,0.24,6
1.48,0.32,6
1.49,0.31,6
1.51,0.25,6
1.48,0.29,6
1.49,0.33,6
1.51,0.27,6
1.5,0.27,6
1.48,0.34,6
1.5,0.3,6
1.5,0.26,6
1.47,0.33,6
1.49,0.33,6
1.5,0.26,6
1.48,0.31,6
1.48,0.34,6
1.51,0.27,6
1.49,0.27,6
1.48,0.34,6
1.5,0.29,6
1.5,0.26,6
1.47,0.33,6
1.48,0.32,6
1.49,0.27,6
1.47,0.31,6
1.48,0.35,6
1.5,0.28,6
1.49,0.29,6
1.48,0.35,6
1.5,0.31,6
1.5,0.28,6
1.48,0.35,6
1.5,0.34,6
1.51,0.28,6
1.49,0.33,6
1.49,0.37,6
1.51,0.3,6
1.5,0.31,6
1.49,0.37,6
1.51,0.33,6
1.51,0.29,6
1.49,0.36,6
1.5,0.36,6
1.51,0.3,6
1.49,0.34,6
1.49,0.38,6
1.52,0.31,6
1.5,0.31,6
1.49,0.38,6
1.51,0.33,6
1.51,0.3,6
1.49,0.38,6
1.5,0.37,6
1.51,0.31,6
1.49,0.36,6
1.49,0.4,6
1.52,0.33,6
1.51,0.33,6
1.5,0.39,6
1.52,0.34,6
1.52,0.31,6
1.49,0.38,6
1.51,0.38,6
1.52,0.32,6
1.49,0.36,6
1.5,0.39,6
1.52,0.32,6
1.51,0.33,6
1.5,0.4,6
1.52,0.35,6
1.51,0.32,6
1.49,0.39,6
1.5,0.39,6
1.51,0.33,6
1.48,0.37,6
1.49,0.41,6
1.51,0.34,6
1.5,0.34,6
1.48,0.41,6
1.51,0.37,6
1.5,0.33,6
1.47,0.41,6
1.48,0.4,6
1.5,0.35,6
1.48,0.39,6
1.48,0.42,6
1.51,0.35,6
1.51,0.35,6
1.5,0.41,6
1.52,0.37,6
1.51,0.34,6
1.49,0.41,6
1.5,0.41,6
1.51,0.34,6
1.49,0.39,6
1.5,0.42,6
1.52,0.35,6
1.5,0.35,6
1.49,0.42,6
1.51,0.37,6
1.5,0.34,6
1.48,0.41,6
1.49,0.41,6
1.5,0.35,6
1.48,0.39,6
1.49,0.43,6
1.51,0.36,6
1.5,0.36,6
1.48,0.42,6
1.51,0.37,6
1.5,0.33,6
1.48,0.41,6
1.5,0.41,6
1.51,0.35,6
1.49,0.4,6
1.5,0.44,6
1.52,0.37,6
1.51,0.38,6
1.49,0.44,6
1.52,0.4,6
1.51,0.37,6
1.49,0.44,6
1.5,0.43,6
1.51,0.38,6
1.49,0.43,6
1.5,0.46,6
1.52,0.4,6
1.51,0.41,6
1.5,0.47,6
1.52,0.42,6
1.51,0.39,6
1.49,0.46,6
1.5,0.46,6
1.51,0.4,6
1.49,0.45,6
1.5,0.49,6
1.53,0.42,6
1.51,0.43,7
1.5,0.49,7
1.52,0.44,7
1.52,0.41,7
1.5,0.48,7
1.52,0.47,7
1.53,0.41,7
1.51,0.46,7
1.52,0.5,7
1.55,0.42,7
1.53,0.43,7
1.52,0.49,7
1.55,0.45,7
1.54,0.42,7
1.51,0.49,7
1.53,0.49,7
1.54,0.43,7
1.52,0.47,7
1.52,0.5,7
1.54,0.43,7
1.53,0.44,7
1.52,0.5,7
1.54,0.46,7
1.53,0.43,7
1.51,0.5,7
1.52,0.49,7
1.53,0.44,7
1.51,0.48,7
1.51,0.51,7
1.53,0.44,7
1.52,0.45,7
1.5,0.51,7
1.52,0.46,7
1.52,0.44,7
1.49,0.52,7
1.51,0.51,7
1.52,0.44,7
1.5,0.49,7
1.5,0.52,7
1.53,0.44,7
1.52,0.45,7
1.51,0.52,7
1.53,0.47,7
1.53,0.44,7
1.5,0.51,7
1.51,0.51,7
1.52,0.45,7
1.5,0.49,7
1.51,0.53,7
1.54,0.46,7
1.53,0.48,7
1.52,0.54,7
1.54,0.5,7
1.53,0.47,7
1.51,0.55,7
1.52,0.54,7
1.53,0.48,7
1.51,0.53,7
1.52,0.56,7
1.54,0.48,7
1.52,0.5,7
1.51,0.56,7
1.54,0.51,7
1.53,0.48,7
1.51,0.55,7
1.52,0.54,7
1.53,0.48,7
1.51,0.53,7
1.52,0.56,7
1.55,0.49,7
1.54,0.51,7
1.52,0.57,7
1.55,0.52,7
1.54,0.49,7
1.52,0.57,7
1.53,0.56,7
1.55,0.5,7
1.53,0.54,7
1.53,0.57,7
1.55,0.5,7
1.54,0.51,7
1.53,0.58,7
1.55,0.54,7
1.54,0.51,7
1.51,0.58,7
1.52,0.57,7
1.53,0.5,7
1.51,0.55,7
1.52,0.58,7
1.55,0.51,7
1.53,0.53,7
1.52,0.6,7
1.54,0.55,7
1.53,0.52,7
1.5,0.59,7
1.52,0.57,7
1.53,0.5,7
1.51,0.55,7
1.52,0.59,7
1.54,0.52,7
1.52,0.53,7
1.51,0.6,7
1.53,0.55,7
1.52,0.52,7
1.5,0.59,7
1.51,0.58,7
1.53,0.53,7
1.51,0.57,7
1.51,0.59,7
1.54,0.52,7
1.52,0.53,7
1.51,0.59,7
1.54,0.55,7
1.53,0.53,7
1.51,0.6,7
1.53,0.58,7
1.54,0.52,7
1.51,0.56,7
1.52,0.59,7
1.54,0.51,7
1.52,0.53,7
1.51,0.59,7
1.53,0.55,7
1.53,0.52,7
1.51,0.6,7
1.52,0.58,7
1.54,0.52,7
1.52,0.57,7
1.53,0.6,7
1.55,0.53,7
1.53,0.54,7
1.51,0.6,7
1.54,0.55,7
1.53,0.52,7
1.51,0.59,7
1.52,0.58,7
1.53,0.52,7
1.51,0.58,7
1.51,0.61,7
1.53,0.54,7
1.52,0.55,7
1.51,0.61,7
1.53,0.56,7
1.53,0.53,7
1.51,0.61,7
1.52,0.6,7
1.53,0.54,7
1.51,0.59,7
1.52,0.62,7
1.55,0.54,7
1.53,0.54,7
1.52,0.61,7
1.54,0.56,7
1.53,0.54,7
1.51,0.61,7
1.53,0.6,7
1.54,0.54,7
1.52,0.58,7
1.53,0.61,7
1.55,0.54,7
1.53,0.56,7
1.52,0.62,7
1.54,0.57,7
1.54,0.54,7
1.52,0.62,7
1.53,0.61,7
1.54,0.55,7
1.52,0.6,7
1.52,0.63,7
1.54,0.56,7
1.52,0.57,7
1.51,0.63,7
1.54,0.59,7
1.53,0.56,7
1.51,0.62,7
1.53,0.61,7
1.54,0.56,7
1.51,0.61,7
1.52,0.65,7
1.54,0.58,7
1.53,0.59,7
1.52,0.65,7
1.55,0.6,7
1.54,0.57,7
1.52,0.66,7
1.53,0.65,7
1.55,0.59,7
1.52,0.64,7
1.53,0.67,7
1.55,0.6,7
1.53,0.62,7
1.52,0.68,7
1.54,0.63,7
1.54,0.6,7
1.52,0.67,7
1.53,0.66,7
1.55,0.61,7
1.53,0.67,7
1.53,0.69,7
1.56,0.62,7
1.54,0.63,7
1.53,0.69,7
1.56,0.64,7
1.55,0.61,7
1.53,0.69,7
1.55,0.68,7
1.56,0.62,7
1.54,0.67,7
1.55,0.7,7
1.57,0.62,7
1.55,0.64,7
1.54,0.7,7
1.56,0.65,7
1.55,0.62,7
1.53,0.7,7
1.54,0.69,7
1.55,0.63,7
1.53,0.68,7
1.54,0.71,7
1.56,0.63,7
1.55,0.64,7
1.53,0.7,7
1.56,0.66,7
1.55,0.63,7
1.53,0.71,7
1.55,0.7,7
1.56,0.64,7
1.54,0.69,7
1.54,0.72,7
1.56,0.65,7
1.54,0.66,7
1.52,0.72,7
1.55,0.67,7
1.55,0.64,7
1.53,0.72,7
1.55,0.7,7
1.56,0.65,7
1.53,0.7,7
1.54,0.74,7
1.56,0.67,7
1.55,0.69,7
1.53,0.76,7
1.56,0.72,7
1.55,0.71,7
1.52,0.8,7
1.53,0.8,7
1.54,0.76,7
1.52,0.82,7
1.52,0.86,7
1.54,0.8,7
1.53,0.84,7
1.51,0.92,7
1.54,0.89,7
1.53,0.88,7
1.51,0.98,7
1.53,0.98,7
1.54,0.93,7
1.52,1.0,7
1.52,1.04,7
1.55,0.97,7
1.53,1.0,7
1.52,1.08,7
1.55,1.04,7
1.55,1.04,7
1.53,1.13,7
1.55,1.13,7
1.56,1.08,7
1.53,1.14,7
1.54,1.18,7
1.56,1.12,7
1.54,1.15,7
1.54,1.22,7
1.57,1.18,7
1.57,1.15,7
1.55,1.23,7
1.56,1.22,7
1.57,1.16,7
1.54,1.22,7
1.55,1.25,7
1.57,1.19,7
1.56,1.21,7
1.55,1.28,7
1.58,1.23,7
1.57,1.21,7
1.55,1.28,7
1.56,1.27,7
1.58,1.21,7
1.55,1.27,7
1.56,1.3,7
1.58,1.22,7
1.57,1.24,7
1.56,1.3,7
1.59,1.25,7
1.58,1.22,7
1.56,1.3,7
1.58,1.29,7
1.59,1.23,7
1.55,1.28,7
1.56,1.31,7
1.57,1.23,7
1.55,1.25,7
1.54,1.31,7
1.57,1.27,7
1.56,1.24,7
1.54,1.32,7
1.56,1.3,7
1.57,1.24,7
1.54,1.29,7
1.55,1.32,7
1.57,1.25,7
1.56,1.27,7
1.55,1.34,7
1.58,1.29,7
1.57,1.26,7
1.55,1.34,7
1.57,1.32,7
1.58,1.26,7
1.55,1.31,7
1.56,1.34,7
1.58,1.27,7
1.56,1.29,7
1.55,1.35,7
1.58,1.3,7
1.58,1.27,7
1.56,1.35,7
1.57,1.33,7
1.59,1.28,7
1.57,1.33,7
1.57,1.36,7
1.6,1.28,7
1.59,1.3,7
1.58,1.36,7
1.61,1.31,7
1.6,1.29,7
1.58,1.36,7
1.59,1.35,7
1.6,1.29,7
1.58,1.34,7
1.59,1.36,7
1.61,1.29,7
1.59,1.31,7
1.57,1.37,7
1.6,1.31,7
1.59,1.29,7
1.56,1.36,7
1.59,1.34,7
1.6,1.28,7
1.58,1.32,7
1.58,1.34,7
1.6,1.25,7
1.59,1.25,7
1.57,1.3,7
1.59,1.23,7
1.58,1.19,7
1.56,1.24,7
1.58,1.21,7
1.6,1.13,7
1.58,1.17,7
1.58,1.17,7
1.6,1.07,7
1.59,1.06,7
1.58,1.1,7
1.61,1.03,7
1.6,0.99,7
1.59,1.04,7
1.6,1.01,7
1.62,0.95,7
1.59,0.99,7
1.59,1.0,7
1.61,0.91,7
1.6,0.92,7
1.59,0.97,7
1.62,0.91,7
1.62,0.89,7
1.6,0.96,7
1.61,0.94,7
1.63,0.88,7
1.6,0.94,7
1.61,0.95,7
1.63,0.88,7
1.61,0.9,7
1.59,0.96,7
1.62,0.92,7
1.61,0.9,7
1.6,0.98,7
1.62,0.97,7
1.62,0.91,7
1.59,0.97,7
1.59,0.99,7
1.61,0.93,7
1.59,0.96,7
1.57,1.03,7
1.6,0.99,7
1.6,0.97,7
1.58,1.05,7
1.59,1.04,7
1.61,0.99,7
1.58,1.06,7
1.6,1.09,7
1.62,1.03,7
1.61,1.06,7
1.6,1.13,7
1.63,1.08,7
1.62,1.07,7
1.6,1.15,7
1.63,1.13,7
1.63,1.08,7
1.61,1.15,7
1.62,1.18,7
1.63,1.12,7
1.61,1.14,7
1.6,1.2,7
1.62,1.15,7
1.61,1.14,7
1.59,1.22,7
1.61,1.2,7
1.63,1.15,7
1.6,1.22,7
1.61,1.25,7
1.63,1.18,7
1.61,1.21,7
1.59,1.28,7
1.61,1.23,7
1.61,1.21,7
1.59,1.28,7
1.6,1.26,7
1.62,1.21,7
1.58,1.27,7
1.59,1.3,7
1.61,1.24,7
1.59,1.27,7
1.58,1.34,7
1.61,1.29,7
1.61,1.28,7
1.59,1.36,7
1.6,1.34,7
1.61,1.29,7
1.58,1.34,7
1.59,1.37,7
1.61,1.3,7
1.6,1.33,7
1.59,1.4,7
1.62,1.35,7
1.61,1.33,7
1.59,1.41,7
1.61,1.39,7
1.62,1.34,7
1.59,1.4,7
1.6,1.42,7
1.61,1.36,7
1.6,1.38,7
1.58,1.44,7
1.61,1.39,7
1.59,1.37,7
1.57,1.45,7
1.59,1.43,7
1.6,1.38,7
1.56,1.43,7
1.57,1.45,7
1.59,1.39,7
1.58,1.41,7
1.57,1.48,7
1.6,1.43,7
1.59,1.41,7
1.57,1.49,7
1.58,1.47,7
1.59,1.41,7
1.57,1.46,7
1.58,1.49,7
1.6,1.42,7
1.58,1.44,7
1.57,1.5,7
1.6,1.45,7
1.59,1.43,7
1.57,1.5,7
1.58,1.48,7
1.59,1.42,7
1.56,1.48,7
1.57,1.49,7
1.59,1.42,7
1.58,1.45,7
1.57,1.51,7
1.6,1.46,7
1.6,1.45,7
1.58,1.52,7
1.6,1.5,7
1.61,1.44,7
1.58,1.49,7
1.59,1.51,7
1.61,1.44,7
1.6,1.46,7
1.59,1.52,7
1.62,1.47,7
1.61,1.46,7
1.59,1.53,7
1.61,1.5,7
1.62,1.45,7
1.58,1.5,7
1.59,1.51,7
1.61,1.45,7
1.59,1.47,7
1.58,1.53,7
1.62,1.47,7
1.61,1.45,7
1.6,1.52,7
1.61,1.49,7
1.63,1.44,7
1.59,1.5,7
1.6,1.52,7
1.61,1.44,7
1.6,1.46,7
1.58,1.51,7
1.61,1.45,7
1.6,1.43,7
1.59,1.5,7
1.6,1.47,7
1.61,1.41,7
1.58,1.46,7
1.59,1.47,7
1.61,1.39,7
1.59,1.41,7
1.58,1.47,7
1.61,1.42,7
1.61,1.4,7
1.59,1.48,7
1.6,1.45,7
1.62,1.39,7
1.58,1.44,7
1.59,1.46,7
1.61,1.39,7
1.6,1.41,7
1.59,1.46,7
1.62,1.4,7
1.61,1.38,7
1.59,1.45,7
1.6,1.42,7
1.61,1.35,7
1.57,1.41,7
1.58,1.42,7
1.6,1.35,7
1.58,1.38,7
1.57,1.43,7
1.61,1.37,7
1.6,1.35,7
1.58,1.41,7
1.59,1.38,7
1.6,1.32,7
1.57,1.38,7
1.57,1.4,7
1.59,1.32,7
1.58,1.35,7
1.56,1.41,7
1.59,1.35,7
1.58,1.33,7
1.56,1.4,8
1.58,1.37,8
1.59,1.31,8
1.55,1.37,8
1.56,1.39,8
1.58,1.31,8
1.56,1.34,8
1.55,1.4,8
1.58,1.35,8
1.57,1.32,8
1.56,1.39,8
1.58,1.36,8
1.59,1.3,8
1.56,1.36,8
1.57,1.38,8
1.58,1.31,8
1.56,1.33,8
1.55,1.38,8
1.58,1.3,8
1.57,1.28,8
1.55,1.34,8
1.57,1.31,8
1.59,1.25,8
1.56,1.31,8
1.57,1.33,8
1.59,1.25,8
1.58,1.27,8
1.56,1.32,8
1.59,1.26,8
1.58,1.24,8
1.55,1.32,8
1.56,1.3,8
1.57,1.24,8
1.54,1.29,8
1.55,1.3,8
1.57,1.22,8
1.55,1.25,8
1.54,1.29,8
1.57,1.23,8
1.56,1.21,8
1.53,1.29,8
1.55,1.26,8
1.56,1.2,8
1.53,1.26,8
1.54,1.28,8
1.56,1.2,8
1.54,1.21,8
1.53,1.27,8
1.56,1.21,8
1.56,1.19,8
1.54,1.26,8
1.55,1.23,8
1.57,1.18,8
1.54,1.23,8
1.54,1.24,8
1.56,1.16,8
1.55,1.18,8
1.53,1.24,8
1.56,1.17,8
1.55,1.15,8
1.53,1.22,8
1.55,1.19,8
1.57,1.12,8
1.54,1.17,8
1.55,1.18,8
1.57,1.11,8
1.56,1.13,8
1.54,1.18,8
1.58,1.13,8
1.57,1.11,8
1.55,1.18,8
1.56,1.15,8
1.57,1.09,8
1.54,1.14,8
1.55,1.15,8
1.57,1.07,8
1.57,1.1,8
1.55,1.14,8
1.58,1.07,8
1.57,1.06,8
1.54,1.12,8
1.55,1.09,8
1.56,1.03,8
1.53,1.09,8
1.53,1.09,8
1.54,1.02,8
1.53,1.04,8
1.51,1.08,8
1.54,1.02,8
1.53,1.0,8
1.51,1.07,8
1.52,1.04,8
1.54,0.99,8
1.51,1.04,8
1.52,1.06,8
1.54,0.99,8
1.52,1.01,8
1.51,1.06,8
1.54,0.99,8
1.53,0.98,8
1.51,1.05,8
1.52,1.02,8
1.54,0.96,8
1.51,1.01,8
1.52,1.02,8
1.53,0.94,8
1.52,0.96,8
1.5,1.01,8
1.53,0.94,8
1.53,0.92,8
1.52,0.99,8
1.53,0.96,8
1.55,0.9,8
1.52,0.96,8
1.53,0.97,8
1.54,0.89,8
1.54,0.91,8
1.53,0.96,8
1.56,0.89,8
1.55,0.87,8
1.53,0.94,8
1.54,0.91,8
1.55,0.85,8
1.52,0.91,8
1.53,0.92,8
1.54,0.84,8
1.52,0.86,8
1.51,0.91,8
1.54,0.85,8
1.53,0.83,8
1.51,0.9,8
1.53,0.87,8
1.54,0.81,8
1.51,0.86,8
1.51,0.88,8
1.53,0.8,8
1.51,0.82,8
1.5,0.88,8
1.53,0.81,8
1.52,0.79,8
1.5,0.86,8
1.51,0.83,8
1.52,0.76,8
1.49,0.82,8
1.5,0.83,8
1.51,0.75,8
1.5,0.78,8
1.48,0.84,8
1.51,0.77,8
1.5,0.75,8
1.48,0.82,8
1.5,0.78,8
1.51,0.72,8
1.48,0.78,8
1.49,0.8,8
1.52,0.73,8
1.5,0.75,8
1.49,0.8,8
1.53,0.73,8
1.52,0.71,8
1.49,0.78,8
1.51,0.75,8
1.52,0.71,8
1.48,0.77,8
1.49,0.78,8
1.5,0.71,8
1.49,0.73,8
1.48,0.78,8
1.51,0.71,8
1.51,0.7,8
1.5,0.77,8
1.52,0.74,8
1.53,0.68,8
1.5,0.74,8
1.5,0.75,8
1.51,0.67,8
1.49,0.69,8
1.48,0.75,8
1.51,0.69,8
1.5,0.67,8
1.48,0.74,8
1.5,0.7,8
1.51,0.64,8
1.48,0.7,8
1.48,0.7,8
1.5,0.63,8
1.48,0.66,8
1.47,0.71,8
1.5,0.65,8
1.49,0.64,8
1.48,0.71,8
1.5,0.68,8
1.52,0.62,8
1.49,0.69,8
1.5,0.69,8
1.51,0.61,8
1.5,0.63,8
1.49,0.68,8
1.51,0.61,8
1.5,0.6,8
1.48,0.67,8
1.49,0.65,8
1.5,0.59,8
1.47,0.66,8
1.47,0.66,8
1.5,0.59,8
1.48,0.6,8
1.47,0.65,8
1.49,0.59,8
1.49,0.57,8
1.46,0.64,8
1.47,0.62,8
1.49,0.56,8
1.46,0.62,8
1.47,0.63,8
1.49,0.56,8
1.48,0.58,8
1.46,0.63,8
1.49,0.56,8
1.48,0.55,8
1.47,0.61,8
1.5,0.58,8
1.51,0.52,8
1.49,0.59,8
1.5,0.6,8
1.52,0.53,8
1.5,0.56,8
1.49,0.61,8
1.52,0.54,8
1.51,0.52,8
1.5,0.58,8
1.51,0.55,8
1.52,0.5,8
1.5,0.57,8
1.51,0.59,8
1.52,0.53,8
1.51,0.56,8
1.5,0.61,8
1.53,0.55,8
1.52,0.54,8
1.5,0.6,8
1.51,0.58,8
1.52,0.53,8
1.49,0.6,8
1.5,0.61,8
1.52,0.55,8
1.5,0.58,8
1.49,0.63,8
1.52,0.57,8
1.51,0.56,8
1.49,0.64,8
1.51,0.62,8
1.52,0.57,8
1.49,0.63,8
1.5,0.65,8
1.51,0.58,8
1.5,0.61,8
1.49,0.66,8
1.52,0.6,8
1.52,0.6,8
1.5,0.67,8
1.52,0.64,8
1.53,0.59,8
1.5,0.65,8
1.51,0.66,8
1.53,0.6,8
1.52,0.63,8
1.51,0.68,8
1.53,0.62,8
1.53,0.62,8
1.51,0.7,8
1.53,0.68,8
1.55,0.64,8
1.53,0.73,8
1.54,0.76,8
1.56,0.7,8
1.54,0.75,8
1.54,0.82,8
1.57,0.77,8
1.56,0.78,8
1.55,0.87,8
1.57,0.85,8
1.58,0.81,8
1.55,0.89,8
1.57,0.9,8
1.58,0.83,8
1.57,0.87,8
1.56,0.92,8
1.6,0.87,8
1.59,0.86,8
1.58,0.94,8
1.6,0.92,8
1.6,0.87,8
1.57,0.94,8
1.57,0.95,8
1.59,0.89,8
1.57,0.92,8
1.56,0.98,8
1.59,0.93,8
1.58,0.93,8
1.56,1.0,8
1.58,0.98,8
1.59,0.93,8
1.56,1.0,8
1.57,1.01,8
1.58,0.96,8
1.56,1.0,8
1.55,1.06,8
1.57,1.01,8
1.56,1.01,8
1.54,1.09,8
1.56,1.07,8
1.57,1.03,8
1.54,1.1,8
1.55,1.12,8
1.56,1.06,8
1.54,1.1,8
1.53,1.15,8
1.56,1.1,8
1.56,1.1,8
1.54,1.18,8
1.56,1.16,8
1.57,1.12,8
1.53,1.18,8
1.54,1.19,8
1.56,1.12,8
1.54,1.16,8
1.53,1.21,8
1.56,1.16,8
1.56,1.16,8
1.54,1.24,8
1.56,1.21,8
1.57,1.17,8
1.54,1.23,8
1.54,1.24,8
1.56,1.17,8
1.54,1.2,8
1.53,1.25,8
1.57,1.19,8
1.56,1.18,8
1.55,1.25,8
1.57,1.23,8
1.58,1.18,8
1.55,1.25,8
1.56,1.25,8
1.57,1.18,8
1.56,1.21,8
1.55,1.26,8
1.58,1.2,8
1.57,1.19,8
1.55,1.26,8
1.56,1.23,8
1.57,1.18,8
1.54,1.25,8
1.55,1.26,8
1.56,1.2,8
1.54,1.23,8
1.53,1.28,8
1.55,1.21,8
1.55,1.2,8
1.53,1.27,8
1.55,1.24,8
1.56,1.19,8
1.53,1.25,8
1.53,1.26,8
1.54,1.19,8
1.53,1.22,8
1.51,1.26,8
1.54,1.2,8
1.54,1.19,8
1.52,1.26,8
1.54,1.23,8
1.55,1.17,8
1.52,1.24,8
1.52,1.25,8
1.54,1.18,8
1.52,1.2,8
1.51,1.25,8
1.54,1.18,8
1.53,1.16,8
1.52,1.23,8
1.54,1.19,8
1.56,1.14,8
1.53,1.21,8
1.55,1.21,8
1.56,1.14,8
1.54,1.17,8
1.53,1.21,8
1.56,1.12,8
1.56,1.1,8
1.56,1.15,8
1.59,1.11,8
1.6,1.04,8
1.58,1.08,8
1.59,1.07,8
1.6,0.97,8
1.58,0.97,8
1.57,1.0,8
1.6,0.91,8
1.59,0.87,8
1.57,0.92,8
1.59,0.86,8
1.6,0.78,8
1.57,0.82,8
1.57,0.8,8
1.6,0.71,8
1.58,0.73,8
1.57,0.76,8
1.6,0.67,8
1.6,0.65,8
1.57,0.71,8
1.59,0.66,8
1.59,0.61,8
1.56,0.66,8
1.56,0.66,8
1.58,0.59,8
1.57,0.63,8
1.56,0.67,8
1.59,0.61,8
1.57,0.61,8
1.56,0.67,8
1.57,0.63,8
1.58,0.58,8
1.55,0.64,8
1.55,0.64,8
1.57,0.57,8
1.55,0.6,8
1.53,0.65,8
1.56,0.59,8
1.56,0.59,8
1.54,0.65,8
1.57,0.62,8
1.58,0.57,8
1.56,0.63,8
1.57,0.63,8
1.58,0.57,8
1.56,0.61,8
1.55,0.66,8
1.58,0.6,8
1.56,0.6,8
1.54,0.67,8
1.56,0.63,8
1.57,0.58,8
1.54,0.64,8
1.55,0.64,8
1.56,0.57,8
1.54,0.61,8
1.53,0.66,8
1.55,0.59,8
1.55,0.59,8
1.54,0.65,8
1.56,0.61,8
1.57,0.56,8
1.54,0.63,8
1.55,0.63,8
1.56,0.56,8
1.54,0.6,8
1.52,0.64,8
1.54,0.58,8
1.53,0.57,8
1.52,0.64,8
1.53,0.61,8
1.54,0.56,8
1.51,0.62,8
1.52,0.62,8
1.53,0.55,8
1.51,0.59,8
1.51,0.64,8
1.54,0.57,8
1.53,0.57,8
1.51,0.64,8
1.53,0.61,8
1.53,0.56,8
1.5,0.63,8
1.51,0.64,8
1.53,0.57,8
1.51,0.61,8
1.5,0.66,8
1.53,0.59,8
1.51,0.58,8
1.49,0.65,8
1.51,0.61,8
1.52,0.56,8
1.49,0.62,8
1.5,0.62,8
1.52,0.55,8
1.5,0.59,8
1.5,0.63,8
1.52,0.56,8
1.52,0.56,8
1.51,0.63,8
1.53,0.59,8
1.54,0.55,8
1.52,0.62,8
1.53,0.62,8
1.55,0.56,8
1.53,0.58,8
1.52,0.62,8
1.55,0.55,8
1.55,0.54,8
1.53,0.61,8
1.55,0.58,8
1.56,0.53,8
1.54,0.6,8
1.55,0.59,8
1.57,0.52,8
1.54,0.56,8
1.53,0.6,8
1.55,0.53,8
1.54,0.53,8
1.53,0.59,8
1.54,0.56,8
1.54,0.51,8
1.51,0.58,8
1.51,0.58,8
1.52,0.51,8
1.5,0.54,8
1.5,0.58,8
1.53,0.51,8
1.52,0.51,8
1.5,0.58,8
1.52,0.54,8
1.52,0.49,8
1.49,0.56,8
1.5,0.56,8
1.52,0.49,8
1.5,0.51,8
1.5,0.56,8
1.52,0.49,8
1.51,0.49,8
1.5,0.55,8
1.52,0.52,8
1.52,0.47,8
1.5,0.53,8
1.51,0.53,8
1.52,0.45,8
1.5,0.48,8
1.48,0.53,8
1.5,0.46,8
1.48,0.46,8
1.47,0.52,8
1.49,0.48,8
1.5,0.44,8
1.48,0.5,8
1.49,0.5,8
1.5,0.43,8
1.48,0.46,8
1.48,0.5,8
1.51,0.43,8
1.5,0.44,8
1.49,0.5,8
1.51,0.47,8
1.52,0.43,8
1.49,0.49,8
1.5,0.48,8
1.52,0.41,8
1.5,0.44,8
1.49,0.48,8
1.51,0.41,8
1.5,0.41,8
1.49,0.48,8
1.51,0.44,8
1.51,0.4,8
1.48,0.47,8
1.49,0.47,8
1.5,0.4,8
1.49,0.44,8
1.49,0.48,8
1.52,0.42,8
1.51,0.42,8
1.5,0.5,8
1.52,0.48,8
1.53,0.45,8
1.51,0.53,8
1.53,0.55,8
1.55,0.51,8
1.54,0.56,8
1.55,0.62,8
1.58,0.56,8
1.57,0.58,8
1.55,0.65,8
1.58,0.62,8
1.59,0.58,8
1.57,0.66,8
1.58,0.66,8
1.6,0.6,8
1.58,0.64,8
1.58,0.69,8
1.61,0.62,8
1.59,0.62,8
1.58,0.69,8
1.59,0.66,8
1.6,0.62,8
1.57,0.69,8
1.58,0.69,8
1.6,0.61,8
1.59,0.64,8
1.58,0.68,8
1.6,0.61,8
1.6,0.6,8
1.58,0.67,8
1.6,0.63,8
1.6,0.59,8
1.59,0.66,8
1.59,0.65,8
1.61,0.59,8
1.59,0.62,8
1.59,0.66,8
1.62,0.59,8
1.62,0.59,8
1.61,0.66,8
1.63,0.62,9
1.63,0.58,9
1.6,0.64,9
1.61,0.64,9
1.63,0.57,9
1.61,0.6,9
1.61,0.64,9
1.63,0.57,9
1.61,0.57,9
1.6,0.64,9
1.62,0.6,9
1.62,0.56,9
1.59,0.63,9
1.6,0.63,9
1.61,0.56,9
1.59,0.59,9
1.59,0.63,9
1.61,0.55,9
1.59,0.55,9
1.57,0.61,9
1.58,0.57,9
1.57,0.54,9
1.55,0.61,9
1.56,0.62,9
1.57,0.55,9
1.55,0.58,9
1.55,0.62,9
1.57,0.55,9
1.56,0.54,9
1.54,0.61,9
1.57,0.57,9
1.57,0.53,9
1.54,0.6,9
1.56,0.59,9
1.58,0.53,9
1.55,0.57,9
1.55,0.61,9
1.58,0.54,9
1.56,0.55,9
1.55,0.61,9
1.57,0.58,9
1.57,0.54,9
1.55,0.61,9
1.56,0.6,9
1.57,0.54,9
1.55,0.57,9
1.55,0.61,9
1.57,0.55,9
1.57,0.55,9
1.56,0.62,9
1.58,0.58,9
1.58,0.54,9
1.55,0.61,9
1.56,0.6,9
1.57,0.54,9
1.55,0.57,9
1.55,0.61,9
1.58,0.54,9
1.57,0.54,9
1.56,0.6,9
1.58,0.56,9
1.57,0.52,9
1.55,0.59,9
1.56,0.58,9
1.57,0.52,9
1.55,0.56,9
1.55,0.59,9
1.58,0.52,9
1.56,0.53,9
1.55,0.59,9
1.57,0.54,9
1.57,0.5,9
1.55,0.57,9
1.56,0.56,9
1.57,0.5,9
1.55,0.54,9
1.55,0.58,9
1.57,0.5,9
1.56,0.51,9
1.55,0.57,9
1.57,0.53,9
1.56,0.49,9
1.53,0.56,9
1.55,0.55,9
1.56,0.48,9
1.53,0.52,9
1.54,0.56,9
1.56,0.49,9
1.55,0.5,9
1.54,0.56,9
1.56,0.51,9
1.55,0.47,9
1.52,0.55,9
1.53,0.54,9
1.54,0.48,9
1.52,0.52,9
1.53,0.56,9
1.55,0.49,9
1.54,0.49,9
1.53,0.55,9
1.54,0.51,9
1.54,0.48,9
1.52,0.55,9
1.53,0.54,9
1.54,0.47,9
1.51,0.51,9
1.51,0.55,9
1.53,0.47,9
1.52,0.48,9
1.51,0.55,9
1.53,0.51,9
1.52,0.47,9
1.5,0.54,9
1.51,0.53,9
1.51,0.46,9
1.49,0.5,9
1.5,0.54,9
1.52,0.47,9
1.51,0.47,9
1.5,0.53,9
1.52,0.49,9
1.52,0.45,9
1.49,0.52,9
1.5,0.51,9
1.52,0.45,9
1.49,0.49,9
1.5,0.52,9
1.52,0.45,9
1.51,0.45,9
1.5,0.51,9
1.52,0.47,9
1.51,0.44,9
1.49,0.51,9
1.5,0.5,9
1.51,0.43,9
1.49,0.47,9
1.5,0.51,9
1.52,0.44,9
1.5,0.44,9
1.49,0.51,9
1.51,0.46,9
1.51,0.43,9
1.49,0.5,9
1.5,0.5,9
1.51,0.44,9
1.49,0.48,9
1.49,0.52,9
1.51,0.45,9
1.5,0.45,9
1.49,0.51,9
1.51,0.46,9
1.51,0.42,9
1.48,0.49,9
1.49,0.48,9
1.5,0.42,9
1.48,0.47,9
1.48,0.51,9
1.51,0.44,9
1.49,0.45,9
1.48,0.52,9
1.5,0.47,9
1.5,0.43,9
1.48,0.49,9
1.49,0.48,9
1.51,0.42,9
1.48,0.47,9
1.49,0.51,9
1.51,0.44,9
1.49,0.45,9
1.48,0.51,9
1.5,0.47,9
1.49,0.42,9
1.47,0.49,9
1.48,0.48,9
1.48,0.41,9
1.46,0.46,9
1.46,0.5,9
1.48,0.43,9
1.48,0.44,9
1.47,0.51,9
1.49,0.46,9
1.49,0.42,9
1.47,0.49,9
1.48,0.48,9
1.5,0.42,9
1.47,0.47,9
1.47,0.51,9
1.49,0.44,9
1.48,0.45,9
1.46,0.52,9
1.48,0.47,9
1.48,0.42,9
1.45,0.49,9
1.46,0.48,9
1.48,0.41,9
1.46,0.46,9
1.46,0.5,9
1.49,0.43,9
1.47,0.44,9
1.46,0.51,9
1.48,0.47,9
1.48,0.44,9
1.45,0.51,9
1.47,0.5,9
1.48,0.44,9
1.46,0.48,9
1.47,0.52,9
1.49,0.45,9
1.48,0.46,9
1.47,0.52,9
1.49,0.47,9
1.48,0.44,9
1.45,0.52,9
1.47,0.51,9
1.48,0.45,9
1.46,0.5,9
1.46,0.54,9
1.49,0.47,9
1.48,0.48,9
1.46,0.55,9
1.49,0.5,9
1.48,0.47,9
1.46,0.54,9
1.48,0.54,9
1.49,0.48,9
1.46,0.53,9
1.47,0.57,9
1.49,0.5,9
1.48,0.51,9
1.47,0.58,9
1.49,0.53,9
1.49,0.5,9
1.46,0.58,9
1.47,0.58,9
1.47,0.51,9
1.44,0.56,9
1.43,0.6,9
1.46,0.53,9
1.44,0.55,9
1.43,0.62,9
1.45,0.58,9
1.45,0.54,9
1.43,0.61,9
1.44,0.59,9
1.45,0.53,9
1.43,0.57,9
1.44,0.61,9
1.46,0.54,9
1.44,0.55,9
1.43,0.61,9
1.45,0.57,9
1.44,0.54,9
1.42,0.62,9
1.43,0.62,9
1.45,0.56,9
1.43,0.6,9
1.44,0.64,9
1.46,0.57,9
1.45,0.58,9
1.44,0.65,9
1.46,0.61,9
1.45,0.57,9
1.43,0.65,9
1.45,0.63,9
1.46,0.57,9
1.44,0.62,9
1.44,0.65,9
1.47,0.58,9
1.45,0.6,9
1.44,0.67,9
1.46,0.63,9
1.45,0.59,9
1.43,0.67,9
1.44,0.65,9
1.45,0.59,9
1.43,0.63,9
1.44,0.67,9
1.46,0.6,9
1.44,0.62,9
1.43,0.69,9
1.45,0.65,9
1.45,0.63,9
1.43,0.71,9
1.46,0.71,9
1.48,0.66,9
1.46,0.73,9
1.47,0.78,9
1.49,0.72,9
1.48,0.74,9
1.47,0.82,9
1.5,0.78,9
1.49,0.76,9
1.46,0.84,9
1.48,0.83,9
1.49,0.77,9
1.46,0.82,9
1.47,0.84,9
1.49,0.76,9
1.47,0.77,9
1.46,0.83,9
1.48,0.78,9
1.47,0.76,9
1.45,0.83,9
1.46,0.83,9
1.48,0.77,9
1.46,0.82,9
1.47,0.85,9
1.49,0.78,9
1.47,0.79,9
1.45,0.86,9
1.48,0.81,9
1.47,0.78,9
1.45,0.85,9
1.46,0.84,9
1.48,0.77,9
1.45,0.82,9
1.46,0.85,9
1.48,0.78,9
1.47,0.8,9
1.46,0.86,9
1.49,0.81,9
1.48,0.78,9
1.46,0.86,9
1.47,0.85,9
1.48,0.79,9
1.46,0.83,9
1.46,0.86,9
1.48,0.78,9
1.47,0.79,9
1.45,0.85,9
1.48,0.81,9
1.46,0.78,9
1.44,0.86,9
1.45,0.85,9
1.46,0.79,9
1.44,0.84,9
1.45,0.87,9
1.47,0.79,9
1.46,0.8,9
1.45,0.87,9
1.47,0.82,9
1.46,0.79,9
1.44,0.87,9
1.45,0.85,9
1.46,0.79,9
1.44,0.84,9
1.44,0.87,9
1.46,0.8,9
1.45,0.82,9
1.43,0.88,9
1.46,0.83,9
1.45,0.8,9
1.43,0.87,9
1.45,0.86,9
1.46,0.81,9
1.44,0.86,9
1.44,0.89,9
1.47,0.82,9
1.45,0.83,9
1.44,0.89,9
1.47,0.84,9
1.46,0.81,9
1.44,0.89,9
1.46,0.87,9
1.47,0.82,9
1.45,0.87,9
1.46,0.9,9
1.48,0.82,9
1.47,0.83,9
1.45,0.89,9
1.48,0.83,9
1.47,0.81,9
1.45,0.88,9
1.46,0.87,9
1.48,0.81,9
1.44,0.85,9
1.44,0.85,9
1.45,0.75,9
1.43,0.72,9
1.4,0.74,9
1.43,0.65,9
1.41,0.59,9
1.38,0.62,9
1.39,0.58,9
1.4,0.5,9
1.36,0.52,9
1.37,0.53,9
1.39,0.44,9
1.37,0.45,9
1.35,0.51,9
1.37,0.46,9
1.35,0.44,9
1.33,0.53,9
1.35,0.52,9
1.37,0.47,9
1.35,0.52,9
1.36,0.56,9
1.38,0.49,9
1.36,0.52,9
1.35,0.58,9
1.38,0.54,9
1.37,0.52,9
1.35,0.59,9
1.37,0.58,9
1.38,0.53,9
1.36,0.58,9
1.37,0.61,9
1.39,0.55,9
1.37,0.57,9
1.36,0.64,9
1.38,0.59,9
1.38,0.57,9
1.36,0.65,9
1.37,0.63,9
1.38,0.57,9
1.35,0.63,9
1.36,0.66,9
1.38,0.59,9
1.37,0.62,9
1.36,0.68,9
1.39,0.64,9
1.38,0.62,9
1.36,0.69,9
1.38,0.68,9
1.38,0.62,9
1.36,0.68,9
1.37,0.71,9
1.39,0.64,9
1.37,0.65,9
1.36,0.7,9
1.38,0.65,9
1.37,0.62,9
1.35,0.69,9
1.36,0.67,9
1.37,0.61,9
1.35,0.67,9
1.36,0.7,9
1.39,0.63,9
1.38,0.65,9
1.37,0.71,9
1.4,0.67,9
1.39,0.65,9
1.37,0.72,9
1.39,0.72,9
1.41,0.66,9
1.38,0.71,9
1.39,0.74,9
1.41,0.67,9
1.4,0.69,9
1.39,0.76,9
1.42,0.71,9
1.41,0.69,9
1.39,0.77,9
1.4,0.76,9
1.41,0.7,9
1.39,0.76,9
1.39,0.78,9
1.41,0.71,9
1.4,0.73,9
1.39,0.8,9
1.42,0.75,9
1.41,0.73,9
1.4,0.8,9
1.42,0.79,9
1.44,0.73,9
1.41,0.79,9
1.42,0.82,9
1.44,0.75,9
1.42,0.77,9
1.41,0.82,9
1.44,0.77,9
1.43,0.75,9
1.41,0.83,9
1.43,0.83,9
1.45,0.78,9
1.42,0.84,9
1.43,0.86,9
1.45,0.79,9
1.44,0.81,9
1.42,0.87,9
1.45,0.83,9
1.45,0.81,9
1.43,0.89,9
1.45,0.87,9
1.47,0.82,9
1.44,0.87,9
1.45,0.89,9
1.47,0.82,9
1.45,0.85,9
1.44,0.91,9
1.48,0.86,9
1.47,0.85,9
1.45,0.93,9
1.47,0.91,9
1.48,0.86,9
1.46,0.92,9
1.46,0.94,9
1.48,0.87,9
1.47,0.89,9
1.46,0.95,9
1.49,0.9,9
1.48,0.88,9
1.47,0.96,9
1.48,0.95,9
1.49,0.89,9
1.46,0.95,9
1.47,0.98,9
1.49,0.91,9
1.47,0.93,9
1.46,1.0,9
1.49,0.94,9
1.49,0.92,9
1.47,1.0,9
1.49,0.98,9
1.5,0.93,9
1.48,0.98,9
1.48,1.01,9
1.5,0.95,9
1.48,0.97,9
1.47,1.03,9
1.5,0.98,9
1.49,0.96,9
1.48,1.03,9
1.5,1.02,9
1.51,0.96,9
1.48,1.02,9
1.49,1.04,9
1.51,0.97,9
1.49,0.98,9
1.48,1.04,9
1.5,0.99,9
1.49,0.97,9
1.47,1.05,9
1.49,1.03,9
1.51,0.98,9
1.48,1.04,9
1.49,1.07,9
1.51,1.0,9
1.49,1.02,9
1.48,1.08,9
1.51,1.03,9
1.5,1.0,9
1.48,1.08,9
1.5,1.06,9
1.51,1.01,9
1.48,1.07,9
1.49,1.1,9
1.51,1.03,9
1.49,1.05,9
1.48,1.1,9
1.51,1.05,9
1.5,1.03,9
1.48,1.1,9
1.5,1.09,9
1.51,1.04,9
1.49,1.11,9
1.5,1.13,9
1.52,1.06,9
1.51,1.08,9
1.5,1.14,9
1.52,1.08,9
1.51,1.06,9
1.49,1.13,9
1.5,1.11,9
1.52,1.06,9
1.49,1.13,9
1.5,1.15,9
1.52,1.08,9
1.51,1.11,9
1.5,1.16,9
1.52,1.1,9
1.52,1.09,9
1.5,1.15,9
1.52,1.13,9
1.53,1.07,9
1.5,1.13,9
1.5,1.14,9
1.52,1.07,9
1.5,1.09,9
1.49,1.15,9
1.52,1.09,9
1.52,1.07,9
1.5,1.14,9
1.52,1.12,9
1.53,1.06,9
1.51,1.12,9
1.52,1.14,9
1.54,1.07,9
1.52,1.09,9
1.51,1.14,9
1.54,1.08,9
1.54,1.06,9
1.52,1.13,9
1.53,1.11,9
1.54,1.05,9
1.51,1.11,9
1.52,1.13,9
1.54,1.06,9
1.52,1.07,9
1.51,1.12,9
1.54,1.06,9
1.54,1.03,9
1.52,1.1,9
1.54,1.08,9
1.55,1.03,9
1.52,1.09,9
1.53,1.11,9
1.54,1.04,9
1.53,1.07,9
1.52,1.11,9
1.55,1.05,9
1.55,1.02,9
1.53,1.1,9
1.55,1.08,9
1.56,1.03,9
1.52,1.09,9
1.53,1.11,9
1.55,1.04,9
1.53,1.06,9
1.52,1.11,9
1.55,1.06,9
1.54,1.04,9
1.53,1.11,9
1.54,1.09,9
1.56,1.03,9
1.53,1.09,9
1.53,1.1,9
1.55,1.03,9
1.54,1.05,9
1.53,1.11,9
1.55,1.05,9
1.55,1.03,9
1.53,1.1,9
1.54,1.08,9
1.56,1.02,9
1.52,1.08,9
1.53,1.1,9
1.54,1.03,9
1.53,1.05,9
1.51,1.11,9
1.54,1.05,9
1.54,1.04,9
1.52,1.11,9
1.54,1.08,9
1.55,1.03,9
1.52,1.08,9
1.52,1.09,9
1.54,1.01,9
1.52,1.04,9
1.5,1.09,9
1.54,1.03,9
1.53,1.01,9
1.51,1.08,9
1.53,1.05,9
1.54,0.99,9
1.51,1.04,9
1.51,1.07,9
1.53,1.0,9
1.52,1.03,9
1.5,1.09,9
1.53,1.02,9
1.52,1.0,9
1.5,1.06,9
1.52,1.03,9
1.53,0.97,9
1.5,1.04,9
1.51,1.05,9
1.53,0.99,9
1.52,1.01,9
1.51,1.06,9
1.54,0.99,9
1.53,0.97,9
1.51,1.04,9
1.52,1.01,9
1.54,0.96,9
1.51,1.02,9
1.52,1.03,9
1.55,0.95,9
1.54,0.97,9
1.52,1.02,9
1.55,0.95,9
1.55,0.93,9
1.53,1.01,9
1.54,0.98,9
1.56,0.92,9
1.52,0.98,9
1.53,0.98,9
1.55,0.9,9
1.53,0.92,9
1.52,0.98,9
1.55,0.92,9
1.54,0.9,9
1.52,0.97,9
1.53,0.94,9
1.54,0.88,9
1.52,0.93,9
1.52,0.94,9
1.54,0.87,9
1.52,0.9,9
1.51,0.95,9
1.54,0.89,9
1.53,0.88,9
1.52,0.96,9
1.54,0.95,9
1.56,0.92,9
1.54,1.01,9
1.54,1.06,9
1.57,1.01,9
1.56,1.06,9
1.55,1.14,9
1.58,1.1,9
1.57,1.09,9
1.55,1.17,9
1.57,1.16,9
1.58,1.11,9
1.55,1.18,9
1.56,1.2,9
1.57,1.13,9
1.56,1.15,9
1.54,1.2,9
1.57,1.14,9
1.56,1.12,9
1.54,1.18,9
1.56,1.15,9
1.57,1.08,9
1.54,1.14,9
1.55,1.14,9
1.57,1.06,9
1.55,1.08,9
1.53,1.13,9
1.57,1.07,9
1.56,1.05,9
1.53,1.11,9
1.55,1.08,9
1.56,1.01,9
1.53,1.05,9
1.53,1.06,9
1.55,0.98,9
1.53,1.0,9
1.52,1.05,9
1.55,0.99,9
1.54,0.98,9
1.52,1.05,9
1.53,1.02,9
1.55,0.96,9
1.52,1.02,9
1.53,1.03,9
1.55,0.95,9
1.54,0.97,9
1.53,1.03,9
1.56,0.97,9
1.56,0.95,9
1.55,1.01,9
1.56,0.98,9
1.58,0.92,9
1.55,0.98,9
1.56,0.99,9
1.57,0.91,9
1.55,0.94,9
1.54,0.98,9
1.57,0.92,9
1.56,0.9,9
1.54,0.97,9
1.56,0.94,9
1.56,0.89,9
1.53,0.95,9
1.53,0.96,9
1.55,0.89,9
1.53,0.9,9
1.52,0.95,9
1.55,0.88,9
1.54,0.86,9
1.52,0.92,9
1.54,0.9,9
1.55,0.84,9
1.52,0.9,9
1.53,0.91,9
1.56,0.84,9
1.54,0.86,9
1.53,0.91,9
1.56,0.84,9
1.54,0.81,9
1.52,0.88,9
1.54,0.85,9
1.55,0.79,9
1.52,0.86,9
1.54,0.88,9
1.55,0.81,9
1.53,0.83,9
1.52,0.88,9
1.55,0.81,9
1.54,0.79,9
1.52,0.86,9
1.54,0.84,9
1.55,0.78,9
1.52,0.84,9
1.53,0.86,9
1.54,0.79,9
1.53,0.81,9
1.52,0.86,9
1.54,0.8,9
1.54,0.78,9
1.52,0.84,9
1.53,0.81,9
1.54,0.75,9
1.52,0.81,9
1.52,0.82,9
1.54,0.75,9
1.53,0.78,9
1.51,0.83,9
1.54,0.76,9
1.53,0.75,9
1.52,0.81,9
1.53,0.78,9
1.54,0.72,9
1.51,0.78,9
1.52,0.79,9
1.54,0.72,9
1.52,0.74,9
1.51,0.79,9
1.55,0.73,9
1.54,0.72,9
1.52,0.78,9
1.53,0.75,9
1.54,0.69,9
1.51,0.75,9
1.51,0.75,9
1.53,0.68,9
1.51,0.71,9
1.5,0.77,9
1.53,0.71,9
1.52,0.7,9
1.5,0.77,9
1.52,0.73,9
1.53,0.68,9
1.5,0.74,9
1.5,0.75,9
1.52,0.69,9
1.5,0.72,9
1.49,0.78,9
1.52,0.72,9
1.51,0.7,9
1.5,0.77,9
1.51,0.74,9
1.52,0.69,9
1.49,0.75,9
1.5,0.77,9
1.51,0.7,9
1.5,0.73,9
1.48,0.77,9
1.51,0.71,9
1.5,0.7,9
1.49,0.77,9
1.5,0.75,9
1.52,0.69,9
1.49,0.76,9
1.5,0.77,9
1.52,0.7,9
1.51,0.73,9
1.5,0.78,9
1.53,0.72,9
1.52,0.71,9
1.5,0.78,9
1.52,0.75,9
1.53,0.7,9
1.5,0.76,9
1.5,0.78,9
1.52,0.72,9
1.5,0.75,9
1.49,0.8,9
1.52,0.74,9
1.52,0.72,9
1.5,0.79,9
1.52,0.76,9
1.54,0.7,9
1.5,0.75,9
1.5,0.75,9
1.52,0.67,9
1.5,0.67,9
1.48,0.7,9
1.51,0.61,9
1.5,0.57,9
1.48,0.61,9
1.48,0.54,9
1.49,0.46,9
1.45,0.5,9
1.46,0.48,9
1.47,0.39,9
1.45,0.41,9
1.44,0.45,9
1.47,0.38,9
1.46,0.36,9
1.45,0.43,9
1.46,0.4,9
1.48,0.35,9
1.45,0.41,9
1.45,0.43,9
1.46,0.38,9
1.45,0.42,9
1.43,0.47,9
1.46,0.42,9
1.46,0.41,9
1.44,0.48,9
1.46,0.46,9
1.47,0.42,9
1.45,0.48,9
1.46,0.5,9
1.47,0.44,9
1.46,0.47,9
1.45,0.52,9
1.48,0.46,9
1.47,0.46,9
1.45,0.54,9
1.47,0.52,9
1.48,0.47,9
1.46,0.53,9
1.46,0.54,9
1.48,0.48,9
1.46,0.5,9
1.45,0.55,9
1.48,0.5,9
1.48,0.49,9
1.47,0.56,9
1.49,0.53,9
1.5,0.48,9
1.46,0.53,9
1.48,0.54,9
1.5,0.47,9
1.48,0.5,9
1.47,0.55,9
1.51,0.5,9
1.5,0.5,9
1.48,0.57,9
1.5,0.55,9
1.52,0.5,9
1.49,0.56,9
1.5,0.58,9
1.51,0.51,9
1.49,0.54,9
1.48,0.59,9
1.5,0.53,9
1.5,0.52,9
1.48,0.59,9
1.5,0.57,9
1.51,0.52,9
1.49,0.58,9
1.5,0.59,9
1.51,0.52,9
1.49,0.55,9
1.48,0.6,9
1.51,0.54,9
1.5,0.54,9
1.49,0.61,9
1.51,0.58,9
1.52,0.53,9
1.5,0.59,9
1.51,0.6,9
1.53,0.53,9
1.52,0.56,9
1.51,0.61,9
1.54,0.55,9
1.53,0.54,9
1.51,0.62,9
1.52,0.59,9
1.54,0.54,9
1.52,0.6,9
1.53,0.61,9
1.54,0.54,9
1.53,0.57,9
1.52,0.63,9
1.55,0.57,9
1.54,0.58,9
1.53,0.65,9
1.55,0.63,9
1.56,0.58,9
1.53,0.64,9
1.54,0.64,9
1.55,0.57,9
1.53,0.6,9
1.52,0.65,9
1.55,0.6,9
1.54,0.6,9
1.53,0.67,9
1.55,0.65,9
1.56,0.6,9
1.53,0.66,9
1.54,0.66,9
1.56,0.59,9
1.55,0.63,9
1.54,0.69,9
1.56,0.63,9
1.56,0.63,9
1.54,0.7,9
1.56,0.68,9
1.57,0.63,9
1.55,0.7,9
1.55,0.71,9
1.57,0.64,9
1.55,0.67,9
1.54,0.72,9
1.57,0.66,9
1.56,0.65,9
1.54,0.72,9
1.56,0.7,9
1.57,0.65,9
1.54,0.72,9
1.54,0.72,9
1.56,0.65,9
1.55,0.68,9
1.54,0.73,9
1.57,0.67,9
1.56,0.67,9
1.56,0.74,9
1.58,0.71,9
1.61,0.66,9
1.6,0.72,9
1.62,0.73,9
1.65,0.66,9
1.64,0.69,9
1.63,0.74,9
1.67,0.68,9
1.66,0.67,9
1.65,0.74,9
1.67,0.71,9
1.68,0.66,9
1.65,0.72,9
1.66,0.73,9
1.68,0.66,9
1.67,0.69,9
1.65,0.74,9
1.68,0.67,9
1.68,0.66,9
1.66,0.73,9
1.68,0.7,9
1.69,0.65,9
1.66,0.72,9
1.67,0.72,9
1.69,0.65,9
1.67,0.67,9
1.66,0.72,9
1.69,0.66,9
1.68,0.67,9
1.66,0.74,9
1.68,0.72,9
1.69,0.68,9
1.67,0.75,9
1.68,0.75,9
1.69,0.68,9
1.68,0.71,9
1.66,0.76,9
1.69,0.7,9
1.68,0.69,9
1.67,0.76,9
1.68,0.73,9
1.69,0.68,9
1.66,0.74,9
1.66,0.75,9
1.68,0.69,9
1.66,0.71,9
1.65,0.76,9
1.68,0.69,9
1.68,0.68,9
1.66,0.75,9
1.67,0.72,9
1.67,0.67,9
1.64,0.74,9
1.65,0.75,9
1.67,0.67,9
1.65,0.7,9
1.64,0.74,9
1.67,0.68,9
1.66,0.67,9
1.64,0.74,9
1.66,0.71,9
1.68,0.66,9
1.65,0.72,9
1.66,0.73,9
1.68,0.66,9
1.67,0.69,9
1.66,0.74,9
1.68,0.67,9
1.68,0.66,9
1.66,0.72,9
1.68,0.68,9
1.69,0.63,9
1.66,0.7,9
1.67,0.71,9
1.69,0.63,9
1.67,0.66,9
1.66,0.71,9
1.69,0.64,9
1.68,0.63,9
1.66,0.71,9
1.68,0.67,9
1.69,0.62,9
1.65,0.68,9
1.66,0.69,9
1.68,0.62,9
1.66,0.64,9
1.65,0.69,9
1.67,0.63,9
1.66,0.62,9
1.64,0.69,9
1.65,0.66,9
1.67,0.61,9
1.63,0.67,9
1.64,0.67,9
1.65,0.59,9
1.63,0.61,9
1.61,0.66,9
1.64,0.59,9
1.63,0.59,9
1.61,0.66,9
1.63,0.64,9
1.63,0.59,9
1.6,0.65,9
1.61,0.64,9
1.63,0.57,9
1.61,0.59,9
1.59,0.63,9
1.62,0.57,9
1.6,0.57,9
1.58,0.64,9
1.6,0.61,9
1.61,0.56,9
1.57,0.63,9
1.57,0.64,9
1.58,0.57,9
1.55,0.59,9
1.53,0.64,9
1.56,0.57,9
1.54,0.56,9
1.52,0.63,9
1.54,0.6,9
1.55,0.55,9
1.52,0.61,9
1.52,0.61,9
1.54,0.54,9
1.52,0.58,9
1.5,0.62,9
1.53,0.55,9
1.52,0.55,9
1.5,0.61,9
1.52,0.57,9
1.53,0.52,9
1.5,0.58,9
1.5,0.59,9
1.51,0.52,9
1.49,0.56,9
1.48,0.6,9
1.51,0.54,9
1.5,0.53,9
1.49,0.59,9
1.5,0.55,9
1.52,0.51,9
1.49,0.57,9
1.51,0.58,9
1.53,0.51,9
1.52,0.54,9
1.51,0.59,9
1.54,0.52,9
1.54,0.52,9
1.52,0.58,9
1.54,0.55,9
1.55,0.5,9
1.52,0.57,9
1.53,0.57,9
1.55,0.51,9
1.53,0.54,9
1.52,0.59,9
1.55,0.51,9
1.54,0.51,9
1.52,0.57,9
1.54,0.53,9
1.54,0.49,9
1.51,0.56,9
1.52,0.57,9
1.54,0.5,9
1.52,0.53,9
1.51,0.58,9
1.54,0.51,9
1.53,0.51,9
1.51,0.57,9
1.53,0.54,9
1.54,0.49,9
1.51,0.56,9
1.51,0.56,9
1.52,0.5,9
1.49,0.53,9
1.48,0.58,9
1.51,0.52,9
1.5,0.51,9
1.49,0.57,9
1.5,0.53,9
1.52,0.48,9
1.49,0.54,9
1.5,0.55,9
1.52,0.49,9
1.5,0.52,9
1.49,0.57,9
1.51,0.5,9
1.5,0.49,9
1.49,0.55,9
1.5,0.52,9
1.51,0.47,9
1.48,0.53,9
1.48,0.54,9
1.49,0.47,9
1.47,0.51,9
1.46,0.56,9
1.49,0.5,9
1.48,0.48,9
1.47,0.55,9
1.48,0.51,9
1.49,0.46,9
1.46,0.53,9
1.47,0.54,9
1.48,0.48,9
1.46,0.51,9
1.46,0.55,9
1.48,0.48,9
1.47,0.48,9
1.45,0.55,9
1.46,0.51,9
1.47,0.47,9
1.44,0.54,9
1.45,0.54,9
1.47,0.47,9
1.45,0.5,9
1.45,0.54,9
1.47,0.48,9
1.46,0.48,9
1.45,0.54,9
1.46,0.51,9
1.47,0.46,9
1.44,0.51,9
1.44,0.51,9
1.45,0.45,9
1.44,0.48,9
1.43,0.52,9
1.46,0.46,9
1.45,0.45,9
1.44,0.52,9
1.46,0.49,9
1.47,0.44,9
1.44,0.51,9
1.44,0.51,9
1.46,0.44,9
1.44,0.47,9
1.43,0.51,9
1.46,0.45,9
1.45,0.44,9
1.44,0.51,9
1.46,0.48,9
1.46,0.43,9
1.43,0.49,9
1.43,0.5,9
1.44,0.43,9
1.43,0.47,9
1.42,0.51,9
1.45,0.45,9
1.44,0.44,9
1.43,0.51,9
1.44,0.47,9
1.45,0.42,9
1.43,0.48,9
1.43,0.48,9
1.45,0.41,9
1.43,0.45,9
1.42,0.49,9
1.45,0.43,9
1.44,0.43,9
1.43,0.49,9
1.45,0.46,9
1.45,0.41,9
1.42,0.48,9
1.43,0.48,9
1.44,0.41,9
1.43,0.44,9
1.42,0.48,9
1.45,0.42,9
1.44,0.42,9
1.42,0.49,9
1.44,0.46,9
1.45,0.41,9
1.42,0.47,9
1.43,0.48,9
1.44,0.41,9
1.42,0.44,9
1.41,0.49,9
1.44,0.43,9
1.43,0.42,9
1.41,0.49,9
1.43,0.46,9
1.44,0.41,9
1.42,0.47,9
1.43,0.47,9
1.45,0.41,9
1.43,0.44,9
1.42,0.48,9
1.45,0.42,9
1.44,0.42,9
1.42,0.48,9
1.44,0.46,9
1.45,0.41,9
1.42,0.48,9
1.43,0.48,9
1.44,0.42,9
1.42,0.45,9
1.41,0.49,9
1.44,0.43,9
1.43,0.42,9
1.41,0.49,9
1.43,0.45,9
1.44,0.4,9
1.42,0.47,9
1.42,0.47,9
1.44,0.4,9
1.41,0.43,9
1.4,0.48,9
1.43,0.42,9
1.42,0.41,9
1.41,0.48,9
1.43,0.45,9
1.44,0.4,9
1.42,0.46,9
1.43,0.47,9
1.44,0.4,9
1.42,0.43,9
1.41,0.48,9
1.44,0.42,9
1.43,0.41,9
1.42,0.48,9
1.43,0.45,9
1.44,0.4,9
1.41,0.46,9
1.42,0.47,9
1.43,0.4,9
1.42,0.43,9
1.41,0.48,9
1.44,0.42,9
1.43,0.42,9
1.42,0.49,9
1.43,0.45,9
1.44,0.4,9
1.42,0.46,9
1.42,0.46,9
1.44,0.4,9
1.42,0.44,9
1.4,0.49,9
1.43,0.43,9
1.42,0.43,9
1.41,0.49,9
1.43,0.46,9
1.44,0.42,9
1.41,0.48,9
1.41,0.5,9
1.43,0.44,9
1.41,0.48,9
1.4,0.53,9
1.43,0.47,9
1.43,0.46,9
1.42,0.52,9
1.43,0.48,9
1.44,0.43,9
1.41,0.5,9
1.42,0.51,9
1.43,0.44,9
1.42,0.48,9
1.41,0.53,9
1.44,0.45,9
1.43,0.45,9
1.41,0.51,9
1.43,0.48,9
1.43,0.44,9
1.4,0.51,9
1.41,0.52,9
1.43,0.46,9
1.41,0.5,9
1.4,0.55,9
1.43,0.48,9
1.42,0.47,9
1.41,0.54,9
1.42,0.5,9
1.43,0.46,9
1.41,0.53,9
1.41,0.54,9
1.43,0.47,9
1.41,0.5,9
1.41,0.55,9
1.43,0.48,9
1.42,0.48,9
1.4,0.55,9
1.42,0.52,9
1.43,0.48,9
1.4,0.55,9
1.41,0.56,9
1.43,0.49,9
1.41,0.52,9
1.4,0.57,9
1.43,0.5,9
1.42,0.5,9
1.4,0.57,9
1.42,0.54,9
1.43,0.49,9
1.4,0.56,9
1.41,0.56,9
1.43,0.5,9
1.41,0.53,9
1.4,0.58,9
1.43,0.52,9
1.42,0.51,9
1.4,0.58,9
1.42,0.55,9
1.43,0.5,9
1.4,0.57,9
1.41,0.57,9
1.42,0.5,9
1.4,0.53,9
1.4,0.58,9
1.43,0.51,9
1.42,0.51,9
1.41,0.58,9
1.43,0.55,9
1.44,0.5,9
1.41,0.56,9
1.42,0.57,9
1.44,0.51,9
1.42,0.55,9
1.41,0.61,9
1.44,0.56,9
1.43,0.57,9
1.41,0.66,9
1.42,0.64,9
1.43,0.61,9
1.4,0.7,9
1.4,0.72,9
1.42,0.67,9
1.41,0.73,9
1.4,0.79,9
1.42,0.74,9
1.42,0.76,9
1.41,0.84,9
1.43,0.82,9
1.45,0.79,9
1.42,0.88,9
1.43,0.91,9
1.45,0.86,9
1.43,0.91,9
1.43,0.98,9
1.45,0.93,9
1.45,0.93,9
1.43,1.01,9
1.45,0.99,9
1.46,0.95,9
1.43,1.03,9
1.44,1.04,9
1.46,0.98,9
1.44,1.01,9
1.43,1.07,9
1.46,1.0,9
1.45,1.01,9
1.44,1.08,9
1.46,1.05,9
1.46,1.01,9
1.44,1.08,9
1.45,1.08,9
1.47,1.02,9
1.45,1.05,9
1.44,1.11,9
1.47,1.04,9
1.46,1.04,9
1.44,1.11,9
1.46,1.08,9
1.47,1.03,9
1.44,1.1,9
1.45,1.1,9
1.47,1.04,9
1.46,1.07,9
1.45,1.12,9
1.48,1.05,9
1.47,1.04,9
1.45,1.1,9
1.47,1.07,9
1.48,1.02,9
1.46,1.09,9
1.46,1.1,9
1.48,1.03,9
1.47,1.07,9
1.46,1.11,9
1.49,1.05,9
1.48,1.04,9
1.47,1.11,9
1.48,1.08,9
1.49,1.03,9
1.46,1.09,9
1.47,1.1,9
1.48,1.03,9
1.47,1.06,9
1.47,1.11,9
1.5,1.03,9
1.49,1.02,9
1.48,1.09,9
1.5,1.05,9
1.5,1.0,9
1.48,1.06,9
1.48,1.07,9
1.5,1.0,9
1.48,1.04,9
1.47,1.09,9
1.5,1.03,9
1.49,1.02,9
1.48,1.09,9
1.5,1.05,9
1.5,1.0,9
1.48,1.06,9
1.49,1.05,9
1.5,0.97,9
1.49,0.99,9
1.48,1.01,9
1.51,0.93,9
1.5,0.9,9
1.49,0.94,9
1.51,0.87,9
1.52,0.79,9
1.5,0.81,9
1.51,0.78,9
1.52,0.68,9
1.5,0.67,9
1.49,0.68,9
1.51,0.59,9
1.5,0.55,9
1.48,0.59,9
1.51,0.53,9
1.52,0.47,9
1.49,0.51,9
1.5,0.5,9
1.51,0.42,9
1.49,0.44,9
1.48,0.47,9
1.5,0.4,9
1.49,0.39,9
1.48,0.45,9
1.49,0.42,9
1.5,0.37,9
1.47,0.44,9
1.48,0.44,9
1.5,0.38,9
1.48,0.42,9
1.47,0.48,9
1.5,0.42,9
1.49,0.43,9
1.47,0.5,9
1.49,0.48,9
1.5,0.43,9
1.47,0.5,9
1.48,0.5,9
1.5,0.44,9
1.48,0.48,9
1.47,0.53,9
1.5,0.47,9
1.49,0.48,9
1.48,0.56,9
1.5,0.53,9
1.51,0.49,9
1.48,0.56,9
1.49,0.56,9
1.5,0.49,9
1.49,0.53,9
1.48,0.58,9
1.51,0.52,9
1.51,0.52,9
1.49,0.59,9
1.51,0.56,9
1.52,0.51,9
1.5,0.58,9
1.5,0.58,9
1.52,0.52,9
1.51,0.55,9
1.5,0.6,9
1.52,0.54,9
1.51,0.54,9
1.49,0.61,9
1.51,0.58,9
1.52,0.54,9
1.49,0.61,9
1.5,0.62,9
1.51,0.55,9
1.49,0.58,9
1.48,0.62,9
1.5,0.55,9
1.5,0.53,9
1.48,0.59,9
1.5,0.56,9
1.51,0.51,9
1.48,0.59,9
1.49,0.59,9
1.5,0.53,9
1.49,0.56,9
1.48,0.61,9
1.51,0.54,9
1.5,0.53,9
1.49,0.6,9
1.51,0.58,9
1.52,0.53,9
1.5,0.6,9
1.5,0.61,9
1.52,0.55,9
1.5,0.58,9
1.48,0.63,9
1.51,0.57,9
1.5,0.56,9
1.48,0.63,9
1.5,0.59,9
1.51,0.55,9
1.48,0.62,9
1.49,0.63,9
1.51,0.56,9
1.49,0.59,9
1.48,0.64,9
1.51,0.57,9
1.5,0.57,9
1.48,0.63,9
1.49,0.6,9
1.5,0.56,9
1.47,0.62,9
1.47,0.63,9
1.49,0.56,9
1.47,0.6,9
1.46,0.64,9
1.49,0.57,9
1.48,0.57,9
1.46,0.64,9
1.47,0.6,9
1.48,0.56,9
1.45,0.63,9
1.46,0.64,9
1.47,0.57,9
1.45,0.6,9
1.45,0.65,9
1.48,0.58,9
1.47,0.57,9
1.46,0.64,9
1.48,0.61,9
1.48,0.56,9
1.45,0.63,9
1.46,0.64,9
1.47,0.57,9
1.46,0.6,9
1.45,0.65,9
1.48,0.58,9
1.47,0.58,9
1.45,0.64,9
1.46,0.61,9
1.48,0.57,9
1.45,0.64,9
1.46,0.65,9
1.47,0.58,9
1.46,0.61,9
1.44,0.65,9
1.47,0.59,9
1.45,0.58,9
1.43,0.64,9
1.45,0.62,9
1.47,0.58,9
1.44,0.65,9
1.45,0.65,9
1.47,0.58,9
1.46,0.61,9
1.45,0.65,9
1.48,0.59,9
1.47,0.58,9
1.46,0.65,9
1.48,0.63,9
1.48,0.59,9
1.46,0.65,9
1.47,0.66,9
1.48,0.59,9
1.47,0.61,9
1.46,0.66,9
1.48,0.61,9
1.47,0.61,9
1.46,0.68,9
1.47,0.65,9
1.48,0.61,9
1.45,0.67,9
1.46,0.67,9
1.47,0.61,9
1.46,0.64,9
1.45,0.69,9
1.47,0.63,9
1.47,0.62,9
1.45,0.69,9
1.47,0.65,9
1.48,0.61,9
1.46,0.68,9
1.47,0.69,9
1.49,0.63,9
1.47,0.66,9
1.46,0.71,9
1.49,0.64,9
1.48,0.62,9
1.47,0.69,9
1.49,0.65,9
1.5,0.61,9
1.47,0.68,9
1.48,0.69,9
1.49,0.63,9
1.48,0.66,9
1.46,0.71,9
1.49,0.64,9
1.48,0.63,9
1.47,0.71,9
1.48,0.68,9
1.5,0.63,9
1.47,0.7,9
1.48,0.71,9
1.49,0.64,9
1.48,0.66,9
1.46,0.71,9
1.49,0.65,9
1.48,0.65,9
1.46,0.73,9
1.48,0.7,9
1.5,0.65,9
1.47,0.72,9
1.48,0.72,9
1.5,0.65,9
1.48,0.68,9
1.47,0.73,9
1.5,0.68,9
1.49,0.67,9
1.47,0.75,9
1.49,0.72,9
1.51,0.67,9
1.48,0.74,9
1.49,0.75,9
1.51,0.68,9
1.49,0.72,9
1.48,0.77,9
1.5,0.71,9
1.49,0.71,9
1.48,0.78,9
1.49,0.75,9
1.5,0.7,9
1.48,0.77,9
1.49,0.78,9
1.51,0.71,9
1.5,0.75,9
1.49,0.8,9
1.52,0.74,9
1.51,0.73,9
1.49,0.8,9
1.52,0.77,9
1.53,0.73,9
1.5,0.79,9
1.51,0.8,9
1.53,0.74,9
1.51,0.77,9
1.5,0.83,9
1.53,0.77,9
1.52,0.76,9
1.51,0.83,9
1.52,0.8,9
1.53,0.75,9
1.5,0.82,9
1.51,0.83,9
1.53,0.76,9
1.51,0.8,9
1.51,0.85,9
1.54,0.79,9
1.53,0.78,9
1.51,0.86,9
1.53,0.83,10
1.54,0.78,10
1.51,0.85,10
1.52,0.85,10
1.54,0.78,10
1.52,0.82,10
1.51,0.87,10
1.54,0.81,10
1.54,0.81,10
1.52,0.88,10
1.54,0.85,10
1.55,0.79,10
1.53,0.86,10
1.54,0.86,10
1.55,0.8,10
1.53,0.83,10
1.52,0.89,10
1.55,0.82,10
1.54,0.82,10
1.53,0.89,10
1.54,0.86,10
1.55,0.81,10
1.53,0.88,10
1.54,0.89,10
1.55,0.82,10
1.53,0.86,10
1.52,0.9,10
1.55,0.84,10
1.54,0.83,10
1.53,0.9,10
1.55,0.87,10
1.56,0.82,10
1.53,0.89,10
1.53,0.9,10
1.55,0.83,10
1.53,0.86,10
1.52,0.92,10
1.54,0.85,10
1.54,0.84,10
1.52,0.91,10
1.54,0.88,10
1.55,0.83,10
1.52,0.9,10
1.53,0.91,10
1.54,0.85,10
1.53,0.88,10
1.52,0.93,10
1.54,0.87,10
1.54,0.87,10
1.52,0.93,10
1.54,0.9,10
1.56,0.86,10
1.54,0.92,10
1.55,0.93,10
1.57,0.86,10
1.55,0.89,10
1.54,0.94,10
1.57,0.88,10
1.55,0.87,10
1.54,0.94,10
1.56,0.91,10
1.57,0.87,10
1.54,0.92,10
1.55,0.93,10
1.56,0.86,10
1.54,0.89,10
1.53,0.94,10
1.57,0.88,10
1.56,0.88,10
1.55,0.95,10
1.57,0.91,10
1.58,0.86,10
1.55,0.92,10
1.56,0.92,10
1.58,0.86,10
1.57,0.89,10
1.56,0.94,10
1.59,0.88,10
1.58,0.88,10
1.56,0.94,10
1.57,0.91,10
1.58,0.86,10
1.55,0.92,10
1.56,0.93,10
1.57,0.86,10
1.56,0.89,10
1.55,0.94,10
1.58,0.88,10
1.57,0.88,10
1.55,0.95,10
1.57,0.91,10
1.57,0.86,10
1.55,0.92,10
1.56,0.92,10
1.58,0.85,10
1.57,0.89,10
1.56,0.94,10
1.59,0.88,10
1.59,0.87,10
1.57,0.94,10
1.59,0.9,10
1.59,0.85,10
1.56,0.9,10
1.57,0.9,10
1.59,0.83,10
1.57,0.87,10
1.56,0.92,10
1.59,0.85,10
1.58,0.85,10
1.57,0.91,10
1.59,0.87,10
1.59,0.82,10
1.56,0.88,10
1.57,0.87,10
1.58,0.81,10
1.57,0.85,10
1.56,0.9,10
1.59,0.84,10
1.58,0.83,10
1.57,0.9,10
1.59,0.86,10
1.59,0.81,10
1.56,0.88,10
1.57,0.9,10
1.58,0.83,10
1.57,0.86,10
1.55,0.9,10
1.58,0.83,10
1.58,0.83,10
1.56,0.9,10
1.57,0.88,10
1.59,0.83,10
1.56,0.89,10
1.57,0.89,10
1.58,0.81,10
1.56,0.84,10
1.56,0.89,10
1.59,0.84,10
1.58,0.84,10
1.57,0.91,10
1.59,0.88,10
1.6,0.83,10
1.57,0.89,10
1.57,0.89,10
1.59,0.83,10
1.57,0.86,10
1.56,0.92,10
1.59,0.85,10
1.58,0.84,10
1.56,0.91,10
1.58,0.87,10
1.6,0.82,10
1.57,0.89,10
1.58,0.9,10
1.59,0.83,10
1.58,0.86,10
1.57,0.91,10
1.6,0.85,10
1.59,0.85,10
1.58,0.92,10
1.6,0.88,10
1.61,0.84,10
1.58,0.9,10
1.59,0.91,10
1.61,0.84,10
1.59,0.88,10
1.58,0.93,10
1.61,0.87,10
1.6,0.87,10
1.58,0.94,10
1.6,0.91,10
1.61,0.87,10
1.58,0.93,10
1.59,0.94,10
1.61,0.88,10
1.6,0.91,10
1.59,0.96,10
1.62,0.89,10
1.61,0.89,10
1.59,0.96,10
1.61,0.93,10
1.61,0.88,10
1.59,0.94,10
1.6,0.95,10
1.61,0.87,10
1.6,0.9,10
1.59,0.95,10
1.62,0.89,10
1.61,0.89,10
1.6,0.96,10
1.61,0.93,10
1.62,0.88,10
1.59,0.95,10
1.59,0.95,10
1.61,0.88,10
1.59,0.92,10
1.58,0.97,10
1.61,0.9,10
1.6,0.9,10
1.58,0.97,10
1.6,0.94,10
1.61,0.89,10
1.58,0.95,10
1.59,0.95,10
1.61,0.88,10
1.59,0.9,10
1.58,0.96,10
1.61,0.89,10
1.6,0.89,10
1.58,0.97,10
1.6,0.94,10
1.61,0.89,10
1.58,0.95,10
1.58,0.95,10
1.6,0.88,10
1.57,0.91,10
1.56,0.96,10
1.6,0.9,10
1.59,0.9,10
1.58,0.97,10
1.6,0.94,10
1.61,0.88,10
1.58,0.95,10
1.58,0.95,10
1.6,0.89,10
1.57,0.92,10
1.57,0.98,10
1.59,0.92,10
1.58,0.91,10
1.57,0.98,10
1.58,0.95,10
1.59,0.89,10
1.56,0.96,10
1.57,0.97,10
1.59,0.9,10
1.58,0.94,10
1.57,0.99,10
1.6,0.92,10
1.59,0.92,10
1.58,0.99,10
1.59,0.95,10
1.59,0.9,10
1.56,0.97,10
1.57,0.98,10
1.59,0.92,10
1.57,0.96,10
1.57,1.01,10
1.59,0.95,10
1.58,0.95,10
1.56,1.03,10
1.58,1.0,10
1.59,0.96,10
1.56,1.04,10
1.57,1.06,10
1.59,1.01,10
1.58,1.06,10
1.57,1.13,10
1.6,1.08,10
1.59,1.09,10
1.58,1.17,10
1.6,1.15,10
1.61,1.12,10
1.59,1.2,10
1.6,1.23,10
1.62,1.18,10
1.6,1.24,10
1.59,1.31,10
1.62,1.26,10
1.61,1.27,10
1.59,1.35,10
1.6,1.33,10
1.62,1.3,10
1.58,1.38,10
1.59,1.4,10
1.61,1.35,10
1.6,1.4,10
1.59,1.46,10
1.62,1.41,10
1.61,1.41,10
1.6,1.5,10
1.62,1.47,10
1.63,1.43,10
1.6,1.5,10
1.61,1.51,10
1.62,1.45,10
1.6,1.49,10
1.59,1.54,10
1.62,1.48,10
1.61,1.48,10
1.6,1.55,10
1.62,1.53,10
1.63,1.49,10
1.6,1.56,10
1.62,1.56,10
1.63,1.5,10
1.61,1.53,10
1.6,1.58,10
1.62,1.52,10
1.61,1.51,10
1.59,1.59,10
1.61,1.56,10
1.62,1.52,10
1.6,1.59,10
1.61,1.59,10
1.63,1.52,10
1.62,1.54,10
1.61,1.6,10
1.63,1.54,10
1.62,1.54,10
1.61,1.61,10
1.63,1.58,10
1.64,1.53,10
1.62,1.59,10
1.63,1.6,10
1.65,1.53,10
1.62,1.56,10
1.61,1.62,10
1.64,1.56,10
1.63,1.56,10
1.61,1.63,10
1.62,1.6,10
1.63,1.55,10
1.6,1.61,10
1.62,1.61,10
1.63,1.54,10
1.62,1.58,10
1.61,1.62,10
1.64,1.56,10
1.62,1.55,10
1.61,1.62,10
1.62,1.58,10
1.63,1.54,10
1.6,1.61,10
1.61,1.62,10
1.63,1.55,10
1.62,1.58,10
1.61,1.62,10
1.64,1.55,10
1.63,1.54,10
1.62,1.59,10
1.64,1.54,10
1.66,1.48,10
1.63,1.53,10
1.64,1.52,10
1.66,1.42,10
1.64,1.43,10
1.62,1.46,10
1.65,1.36,10
1.65,1.32,10
1.63,1.37,10
1.65,1.32,10
1.65,1.25,10
1.62,1.3,10
1.62,1.29,10
1.64,1.21,10
1.61,1.22,10
1.6,1.25,10
1.63,1.17,10
1.63,1.14,10
1.61,1.2,10
1.63,1.15,10
1.64,1.1,10
1.6,1.15,10
1.61,1.15,10
1.62,1.08,10
1.6,1.1,10
1.59,1.14,10
1.62,1.07,10
1.61,1.06,10
1.59,1.12,10
1.61,1.09,10
1.62,1.04,10
1.58,1.11,10
1.59,1.11,10
1.61,1.05,10
1.59,1.09,10
1.58,1.15,10
1.61,1.09,10
1.61,1.09,10
1.59,1.16,10
1.61,1.13,10
1.62,1.09,10
1.59,1.16,10
1.6,1.17,10
1.61,1.11,10
1.59,1.15,10
1.58,1.21,10
1.61,1.15,10
1.6,1.15,10
1.58,1.22,10
1.59,1.19,10
1.6,1.13,10
1.57,1.2,10
1.58,1.21,10
1.6,1.14,10
1.59,1.18,10
1.58,1.23,10
1.61,1.16,10
1.6,1.16,10
1.58,1.23,10
1.59,1.2,10
1.6,1.15,10
1.57,1.22,10
1.58,1.22,10
1.6,1.15,10
1.58,1.18,10
1.57,1.24,10
1.6,1.17,10
1.59,1.17,10
1.57,1.25,10
1.59,1.22,10
1.6,1.16,10
1.57,1.23,10
1.58,1.23,10
1.59,1.16,10
1.58,1.2,10
1.57,1.25,10
1.6,1.18,10
1.6,1.18,10
1.58,1.26,10
1.6,1.22,10
1.61,1.17,10
1.57,1.24,10
1.58,1.24,10
1.6,1.17,10
1.58,1.2,10
1.56,1.25,10
1.59,1.18,10
1.58,1.18,10
1.55,1.25,10
1.57,1.21,10
1.58,1.16,10
1.54,1.22,10
1.55,1.22,10
1.57,1.14,10
1.55,1.17,10
1.54,1.21,10
1.57,1.14,10
1.55,1.14,10
1.53,1.21,10
1.54,1.18,10
1.55,1.13,10
1.52,1.2,10
1.52,1.2,10
1.54,1.13,10
1.53,1.15,10
1.52,1.2,10
1.56,1.13,10
1.55,1.12,10
1.54,1.19,10
1.56,1.15,10
1.56,1.1,10
1.53,1.16,10
1.54,1.16,10
1.56,1.09,10
1.54,1.12,10
1.53,1.17,10
1.56,1.11,10
1.55,1.1,10
1.54,1.17,10
1.55,1.13,10
1.56,1.08,10
1.53,1.14,10
1.54,1.14,10
1.56,1.07,10
1.54,1.1,10
1.53,1.15,10
1.56,1.08,10
1.55,1.07,10
1.53,1.13,10
1.54,1.1,10
1.56,1.04,10
1.53,1.11,10
1.54,1.12,10
1.56,1.05,10
1.54,1.08,10
1.53,1.13,10
1.56,1.06,10
1.55,1.05,10
1.53,1.11,10
1.55,1.08,10
1.56,1.03,10
1.53,1.1,10
1.54,1.1,10
1.56,1.03,10
1.54,1.06,10
1.53,1.11,10
1.56,1.04,10
1.55,1.04,10
1.53,1.1,10
1.55,1.06,10
1.57,1.0,10
1.53,1.06,10
1.54,1.06,10
1.56,0.99,10
1.54,1.02,10
1.52,1.08,10
1.55,1.01,10
1.54,1.0,10
1.52,1.06,10
1.54,1.02,10
1.55,0.97,10
1.52,1.03,10
1.52,1.04,10
1.53,0.97,10
1.51,1.0,10
1.5,1.05,10
1.53,0.98,10
1.52,0.97,10
1.51,1.03,10
1.53,1.0,10
1.54,0.94,10
1.51,1.0,10
1.52,1.0,10
1.54,0.94,10
1.52,0.97,10
1.51,1.01,10
1.54,0.94,10
1.53,0.92,10
1.52,0.98,10
1.53,0.95,10
1.54,0.9,10
1.51,0.96,10
1.51,0.97,10
1.53,0.9,10
1.52,0.93,10
1.51,0.97,10
1.54,0.9,10
1.54,0.89,10
1.52,0.95,10
1.54,0.92,10
1.54,0.87,10
1.51,0.92,10
1.51,0.93,10
1.53,0.85,10
1.51,0.88,10
1.51,0.92,10
1.54,0.85,10
1.54,0.83,10
1.52,0.9,10
1.54,0.87,10
1.54,0.81,10
1.51,0.88,10
1.51,0.89,10
1.53,0.81,10
1.51,0.84,10
1.5,0.89,10
1.53,0.81,10
1.53,0.8,10
1.51,0.87,10
1.52,0.84,10
1.53,0.8,10
1.5,0.86,10
1.51,0.86,10
1.52,0.79,10
1.51,0.81,10
1.5,0.86,10
1.53,0.79,10
1.52,0.78,10
1.51,0.85,10
1.53,0.82,10
1.54,0.77,10
1.51,0.83,10
1.52,0.83,10
1.54,0.75,10
1.52,0.78,10
1.51,0.82,10
1.53,0.76,10
1.52,0.75,10
1.51,0.82,10
1.52,0.79,10
1.54,0.75,10
1.51,0.81,10
1.52,0.82,10
1.54,0.74,10
1.52,0.77,10
1.51,0.82,10
1.54,0.75,10
1.53,0.74,10
1.51,0.82,10
1.53,0.78,10
1.55,0.73,10
1.52,0.79,10
1.53,0.8,10
1.55,0.73,10
1.53,0.76,10
1.52,0.8,10
1.55,0.74,10
1.54,0.73,11
1.53,0.79,11
1.55,0.76,11
1.56,0.72,11
1.53,0.78,11
1.53,0.79,11
1.55,0.71,11
1.53,0.73,11
1.52,0.78,11
1.55,0.7,11
1.54,0.7,11
1.53,0.77,11
1.54,0.73,11
1.55,0.68,11
1.52,0.74,11
1.53,0.74,11
1.55,0.67,11
1.54,0.7,11
1.53,0.75,11
1.55,0.69,11
1.54,0.68,11
1.53,0.75,11
1.55,0.72,11
1.56,0.66,11
1.53,0.72,11
1.54,0.73,11
1.56,0.66,11
1.54,0.68,11
1.53,0.72,11
1.56,0.65,11
1.55,0.65,11
1.53,0.71,11
1.55,0.67,11
1.56,0.62,11
1.53,0.68,11
1.54,0.67,11
1.56,0.59,11
1.54,0.63,11
1.53,0.67,11
1.56,0.6,11
1.55,0.6,11
1.54,0.67,11
1.56,0.63,11
1.56,0.57,11
1.53,0.63,11
1.54,0.63,11
1.55,0.56,11
1.53,0.6,11
1.52,0.64,11
1.55,0.57,11
1.54,0.57,11
1.53,0.62,11
1.55,0.59,11
1.56,0.54,11
1.52,0.61,11
1.53,0.62,11
1.55,0.55,11
1.53,0.58,11
1.52,0.62,11
1.56,0.55,11
1.55,0.55,11
1.54,0.62,11
1.56,0.59,11
1.57,0.54,11
1.54,0.61,11
1.54,0.61,11
1.56,0.54,11
1.54,0.58,11
1.53,0.62,11
1.56,0.55,11
1.55,0.54,11
1.53,0.6,11
1.55,0.57,11
1.56,0.53,11
1.53,0.59,11
1.54,0.6,11
1.55,0.54,11
1.54,0.57,11
1.53,0.61,11
1.56,0.54,11
1.55,0.54,11
1.53,0.6,11
1.55,0.57,11
1.56,0.53,11
1.53,0.6,11
1.54,0.6,11
1.56,0.53,11
1.54,0.56,11
1.53,0.6,11
1.56,0.54,11
1.55,0.53,11
1.54,0.6,11
1.56,0.57,11
1.57,0.52,11
1.54,0.58,11
1.54,0.58,11
1.55,0.51,11
1.54,0.54,11
1.53,0.59,11
1.55,0.52,11
1.54,0.52,11
1.53,0.59,11
1.54,0.56,11
1.55,0.51,11
1.52,0.58,11
1.53,0.57,11
1.55,0.5,11
1.53,0.53,11
1.53,0.58,11
1.56,0.51,11
1.55,0.51,11
1.54,0.58,11
1.56,0.55,11
1.57,0.5,11
1.54,0.57,11
1.55,0.57,11
1.57,0.51,11
1.55,0.55,11
1.53,0.6,11
1.56,0.53,11
1.55,0.53,11
1.53,0.6,11
1.55,0.58,11
1.56,0.54,11
1.52,0.62,11
1.53,0.63,11
1.54,0.56,11
1.53,0.6,11
1.52,0.65,11
1.55,0.58,11
1.54,0.57,11
1.53,0.64,11
1.55,0.62,11
1.56,0.57,11
1.53,0.64,11
1.54,0.65,11
1.55,0.58,11
1.52,0.61,11
1.51,0.66,11
1.54,0.6,11
1.53,0.59,11
1.52,0.66,11
1.54,0.64,11
1.55,0.59,11
1.52,0.66,11
1.53,0.67,11
1.55,0.61,11
1.53,0.66,11
1.52,0.71,11
1.55,0.64,11
1.54,0.64,11
1.52,0.71,11
1.54,0.67,11
1.56,0.63,11
1.53,0.71,11
1.54,0.72,11
1.56,0.65,11
1.54,0.69,11
1.53,0.74,11
1.56,0.68,11
1.55,0.68,11
1.54,0.75,11
1.56,0.72,11
1.57,0.68,11
1.54,0.75,11
1.55,0.75,11
1.56,0.69,11
1.54,0.73,11
1.54,0.78,11
1.56,0.73,11
1.55,0.73,11
1.53,0.8,11
1.55,0.77,11
1.56,0.73,11
1.53,0.8,11
1.55,0.81,11
1.57,0.75,11
1.56,0.79,11
1.55,0.84,11
1.57,0.78,11
1.56,0.78,11
1.55,0.85,11
1.57,0.83,11
1.58,0.78,11
1.55,0.85,11
1.55,0.87,11
1.57,0.81,11
1.55,0.85,11
1.55,0.9,11
1.58,0.84,11
1.57,0.83,11
1.55,0.9,11
1.57,0.87,11
1.58,0.83,11
1.55,0.9,11
1.56,0.9,11
1.58,0.84,11
1.57,0.88,11
1.56,0.93,11
1.6,0.88,11
1.59,0.87,11
1.58,0.94,11
1.6,0.91,11
1.6,0.86,11
1.57,0.92,11
1.58,0.93,11
1.6,0.86,11
1.58,0.9,11
1.57,0.95,11
1.6,0.88,11
1.59,0.88,11
1.57,0.94,11
1.59,0.91,11
1.6,0.86,11
1.57,0.92,11
1.58,0.93,11
1.59,0.87,11
1.58,0.9,11
1.57,0.95,11
1.6,0.89,11
1.59,0.89,11
1.58,0.97,11
1.6,0.94,11
1.61,0.89,11
1.58,0.96,11
1.59,0.97,11
1.61,0.89,11
1.59,0.92,11
1.58,0.98,11
1.62,0.92,11
1.61,0.91,11
1.59,0.99,11
1.61,0.96,11
1.62,0.91,11
1.59,0.97,11
1.6,0.97,11
1.62,0.91,11
1.6,0.94,11
1.59,1.0,11
1.62,0.93,11
1.61,0.93,11
1.6,1.0,11
1.61,0.97,11
1.62,0.92,11
1.59,0.99,11
1.6,0.99,11
1.62,0.93,11
1.61,0.96,11
1.6,1.02,11
1.63,0.96,11
1.62,0.95,11
1.6,1.02,11
1.62,0.98,11
1.63,0.92,11
1.6,0.98,11
1.61,0.98,11
1.63,0.92,11
1.61,0.95,11
1.6,1.01,11
1.63,0.94,11
1.62,0.94,11
1.6,1.01,11
1.62,0.98,11
1.64,0.95,11
1.6,1.02,11
1.61,1.04,11
1.62,0.98,11
1.6,1.03,11
1.59,1.09,11
1.63,1.05,11
1.62,1.06,11
1.61,1.14,11
1.63,1.12,11
1.64,1.09,11
1.61,1.18,11
1.62,1.2,11
1.63,1.16,11
1.62,1.22,11
1.61,1.28,11
1.64,1.24,11
1.63,1.25,11
1.62,1.33,11
1.63,1.31,11
1.64,1.28,11
1.61,1.35,11
1.62,1.38,11
1.64,1.32,11
1.62,1.37,11
1.62,1.43,11
1.65,1.37,11
1.65,1.37,11
1.63,1.44,11
1.65,1.41,11
1.66,1.36,11
1.63,1.42,11
1.64,1.42,11
1.66,1.35,11
1.64,1.38,11
1.62,1.42,11
1.65,1.35,11
1.63,1.35,11
1.61,1.42,11
1.63,1.39,11
1.63,1.33,11
1.61,1.39,11
1.62,1.39,11
1.63,1.31,11
1.62,1.34,11
1.61,1.39,11
1.64,1.32,11
1.63,1.31,11
1.62,1.38,11
1.63,1.34,11
1.65,1.29,11
1.62,1.36,11
1.63,1.35,11
1.65,1.28,11
1.63,1.31,11
1.61,1.35,11
1.64,1.28,11
1.62,1.27,11
1.6,1.33,11
1.62,1.3,11
1.63,1.24,11
1.6,1.31,11
1.61,1.31,11
1.63,1.24,11
1.61,1.26,11
1.6,1.31,11
1.63,1.23,11
1.62,1.22,11
1.6,1.29,11
1.61,1.25,11
1.62,1.2,11
1.59,1.27,11
1.6,1.27,11
1.62,1.21,11
1.6,1.24,11
1.59,1.28,11
1.62,1.22,11
1.61,1.21,11
1.59,1.27,11
1.61,1.23,11
1.62,1.17,11
1.6,1.22,11
1.6,1.21,11
1.62,1.12,11
1.6,1.13,11
1.58,1.15,11
1.62,1.06,11
1.61,1.02,11
1.6,1.05,11
1.62,0.98,11
1.63,0.9,11
1.6,0.94,11
1.6,0.91,11
1.61,0.81,11
1.59,0.81,11
1.59,0.84,11
1.62,0.76,11
1.61,0.73,11
1.59,0.79,11
1.6,0.74,11
1.6,0.68,11
1.56,0.73,11
1.56,0.72,11
1.58,0.64,11
1.56,0.66,11
1.55,0.71,11
1.57,0.65,11
1.57,0.65,11
1.55,0.72,11
1.57,0.69,11
1.58,0.65,11
1.55,0.71,11
1.56,0.71,11
1.57,0.65,11
1.55,0.69,11
1.54,0.74,11
1.57,0.69,11
1.57,0.69,11
1.55,0.76,11
1.57,0.73,11
1.58,0.69,11
1.54,0.75,11
1.55,0.76,11
1.57,0.7,11
1.55,0.73,11
1.54,0.78,11
1.57,0.71,11
1.56,0.71,11
1.54,0.77,11
1.56,0.74,11
1.56,0.7,11
1.53,0.77,11
1.54,0.77,11
1.55,0.7,11
1.54,0.74,11
1.53,0.79,11
1.55,0.72,11
1.54,0.72,11
1.52,0.79,11
1.54,0.76,11
1.54,0.7,11
1.52,0.77,11
1.52,0.77,11
1.54,0.7,11
1.53,0.73,11
1.52,0.78,11
1.55,0.7,11
1.54,0.69,11
1.53,0.75,11
1.54,0.71,11
1.55,0.66,11
1.52,0.73,11
1.53,0.73,11
1.54,0.66,11
1.52,0.7,11
1.51,0.74,11
1.53,0.67,11
1.53,0.65,11
1.51,0.71,11
1.53,0.68,11
1.54,0.63,11
1.5,0.69,11
1.51,0.69,11
1.53,0.63,11
1.51,0.66,11
1.5,0.7,11
1.53,0.63,11
1.52,0.63,11
1.5,0.69,11
1.52,0.66,11
1.53,0.61,11
1.49,0.68,11
1.5,0.68,11
1.52,0.61,11
1.5,0.64,11
1.49,0.68,11
1.52,0.62,11
1.51,0.61,11
1.48,0.67,11
1.5,0.63,11
1.5,0.57,11
1.47,0.63,11
1.48,0.64,11
1.49,0.57,11
1.47,0.6,11
1.46,0.65,11
1.49,0.58,11
1.49,0.56,11
1.48,0.62,11
1.5,0.59,11
1.5,0.54,11
1.48,0.6,11
1.49,0.6,11
1.5,0.53,11
1.48,0.56,11
1.48,0.6,11
1.51,0.53,11
1.49,0.52,11
1.48,0.58,11
1.5,0.54,11
1.51,0.49,11
1.48,0.55,11
1.49,0.55,11
1.51,0.48,11
1.49,0.52,11
1.47,0.57,11
1.5,0.5,11
1.49,0.49,11
1.47,0.55,11
1.49,0.52,11
1.49,0.46,11
1.46,0.53,11
1.47,0.53,11
1.48,0.46,11
1.46,0.49,11
1.46,0.54,11
1.49,0.47,11
1.48,0.47,11
1.47,0.53,11
1.49,0.49,11
1.5,0.44,11
1.47,0.51,11
1.47,0.51,11
1.49,0.44,11
1.47,0.48,11
1.46,0.53,11
1.48,0.46,11
1.48,0.46,11
1.46,0.52,11
1.47,0.49,11
1.48,0.44,11
1.46,0.5,11
1.47,0.5,11
1.49,0.44,11
1.48,0.46,11
1.47,0.51,11
1.5,0.44,11
1.49,0.44,11
1.47,0.5,11
1.48,0.47,11
1.49,0.42,11
1.46,0.48,11
1.46,0.49,11
1.48,0.42,11
1.46,0.46,11
1.45,0.5,11
1.47,0.43,11
1.47,0.42,11
1.45,0.49,11
1.46,0.46,11
1.47,0.41,11
1.45,0.48,11
1.46,0.48,11
1.47,0.41,11
1.46,0.43,11
1.45,0.47,11
1.48,0.41,11
1.46,0.41,11
1.45,0.48,11
1.46,0.46,11
1.47,0.41,11
1.44,0.47,12
1.45,0.47,12
1.47,0.4,12
1.45,0.43,12
1.44,0.47,12
1.46,0.41,12
1.45,0.4,12
1.43,0.47,12
1.45,0.43,12
1.46,0.38,12
1.44,0.45,12
1.45,0.45,12
1.46,0.38,12
1.45,0.41,12
1.44,0.46,12
1.47,0.39,12
1.45,0.38,12
1.43,0.44,12
1.45,0.41,12
1.45,0.36,12
1.43,0.43,12
1.43,0.44,12
1.45,0.37,12
1.43,0.4,12
1.42,0.45,12
1.44,0.38,12
1.44,0.37,12
1.42,0.43,12
1.44,0.39,12
1.45,0.34,12
1.43,0.41,12
1.44,0.41,12
1.46,0.34,12
1.44,0.38,12
1.43,0.42,12
1.46,0.36,12
1.45,0.35,12
1.43,0.42,12
1.45,0.38,12
1.46,0.33,12
1.44,0.4,12
1.44,0.4,12
1.46,0.33,12
1.44,0.37,12
1.43,0.42,12
1.46,0.35,12
1.45,0.35,12
1.44,0.42,12
1.46,0.38,12
1.47,0.33,12
1.44,0.39,12
1.45,0.4,12
1.46,0.33,12
1.44,0.37,12
1.43,0.42,12
1.46,0.35,12
1.45,0.34,12
1.44,0.41,12
1.45,0.37,12
1.46,0.32,12
1.44,0.39,12
1.45,0.4,12
1.46,0.34,12
1.44,0.38,12
1.43,0.43,12
1.46,0.36,12
1.45,0.35,12
1.43,0.42,12
1.45,0.38,12
1.46,0.34,12
1.43,0.41,12
1.45,0.42,12
1.47,0.35,12
1.45,0.39,12
1.44,0.43,12
1.47,0.37,12
1.46,0.37,12
1.44,0.43,12
1.46,0.4,12
1.47,0.36,12
1.44,0.42,12
1.45,0.42,12
1.47,0.35,12
1.45,0.39,12
1.44,0.44,12
1.46,0.38,12
1.45,0.38,12
1.43,0.44,12
1.45,0.41,12
1.46,0.36,12
1.43,0.42,12
1.43,0.42,12
1.45,0.36,12
1.43,0.4,12
1.42,0.45,12
1.45,0.38,12
1.44,0.38,12
1.42,0.44,12
1.43,0.41,12
1.44,0.36,12
1.42,0.43,12
1.43,0.43,12
1.44,0.37,12
1.42,0.41,12
1.41,0.46,12
1.44,0.4,12
1.43,0.4,12
1.42,0.46,12
1.44,0.43,12
1.45,0.38,12
1.42,0.44,12
1.43,0.44,12
1.44,0.37,12
1.42,0.4,12
1.41,0.45,12
1.44,0.39,12
1.44,0.39,12
1.42,0.45,12
1.44,0.42,12
1.45,0.36,12
1.42,0.42,12
1.43,0.42,12
1.44,0.36,12
1.42,0.41,12
1.42,0.46,12
1.45,0.39,12
1.44,0.38,12
1.43,0.45,12
1.45,0.41,12
1.46,0.36,12
1.43,0.43,12
1.45,0.44,12
1.46,0.38,12
1.44,0.41,12
1.43,0.45,12
1.46,0.39,12
1.45,0.38,12
1.44,0.44,12
1.45,0.4,12
1.46,0.36,12
1.43,0.43,12
1.44,0.44,12
1.46,0.37,12
1.44,0.4,12
1.43,0.45,12
1.46,0.38,12
1.44,0.38,12
1.43,0.45,12
1.44,0.42,12
1.45,0.37,12
1.42,0.44,12
1.43,0.44,12
1.44,0.38,12
1.43,0.41,12
1.42,0.46,12
1.44,0.39,12
1.43,0.39,12
1.41,0.45,12
1.42,0.42,12
1.43,0.37,12
1.41,0.44,12
1.41,0.44,12
1.43,0.37,12
1.41,0.41,12
1.41,0.46,12
1.43,0.39,12
1.43,0.39,12
1.41,0.46,12
1.43,0.43,12
1.44,0.39,12
1.42,0.46,12
1.43,0.46,12
1.45,0.39,12
1.43,0.43,12
1.42,0.48,12
1.45,0.41,12
1.44,0.41,12
1.42,0.48,12
1.44,0.45,12
1.45,0.41,12
1.42,0.48,12
1.43,0.49,12
1.44,0.42,12
1.42,0.45,12
1.42,0.5,12
1.45,0.43,12
1.44,0.42,12
1.43,0.49,12
1.45,0.47,12
1.46,0.43,12
1.44,0.49,12
1.45,0.5,12
1.46,0.44,12
1.44,0.47,12
1.43,0.52,12
1.46,0.46,12
1.45,0.46,12
1.43,0.53,12
1.45,0.5,12
1.46,0.45,12
1.43,0.52,12
1.44,0.53,12
1.46,0.46,12
1.44,0.5,12
1.43,0.55,12
1.46,0.49,12
1.45,0.49,12
1.43,0.55,12
1.45,0.52,12
1.46,0.47,12
1.43,0.53,12
1.44,0.53,12
1.45,0.48,12
1.43,0.53,12
1.43,0.58,12
1.46,0.52,12
1.45,0.52,12
1.44,0.58,12
1.46,0.55,12
1.47,0.5,12
1.45,0.58,12
1.46,0.58,12
1.48,0.52,12
1.46,0.56,12
1.46,0.61,12
1.48,0.54,12
1.47,0.54,12
1.45,0.61,12
1.47,0.58,12
1.48,0.54,12
1.46,0.62,12
1.47,0.62,12
1.48,0.55,12
1.47,0.59,12
1.46,0.64,12
1.49,0.57,12
1.48,0.58,12
1.46,0.65,12
1.48,0.62,12
1.49,0.58,12
1.46,0.65,12
1.47,0.65,12
1.49,0.6,12
1.47,0.64,12
1.47,0.68,12
1.49,0.62,12
1.48,0.62,12
1.47,0.7,12
1.49,0.67,12
1.5,0.63,12
1.47,0.7,12
1.49,0.71,12
1.5,0.64,12
1.48,0.68,12
1.47,0.74,12
1.5,0.67,12
1.5,0.68,12
1.49,0.75,12
1.51,0.72,12
1.51,0.68,12
1.48,0.75,12
1.49,0.75,12
1.5,0.69,12
1.49,0.73,12
1.48,0.78,12
1.51,0.72,12
1.5,0.72,12
1.48,0.79,12
1.5,0.76,12
1.51,0.72,12
1.48,0.79,12
1.49,0.8,12
1.51,0.74,12
1.49,0.78,12
1.49,0.84,12
1.51,0.78,12
1.5,0.78,12
1.49,0.85,12
1.52,0.81,12
1.53,0.76,12
1.5,0.84,12
1.52,0.85,12
1.53,0.78,12
1.52,0.83,12
1.51,0.88,12
1.54,0.81,12
1.53,0.81,12
1.52,0.88,12
1.54,0.84,12
1.54,0.8,12
1.51,0.87,12
1.52,0.87,12
1.53,0.81,12
1.51,0.85,12
1.5,0.9,12
1.52,0.84,12
1.51,0.84,12
1.5,0.91,12
1.52,0.87,12
1.53,0.82,12
1.51,0.9,12
1.52,0.9,12
1.53,0.84,12
1.51,0.88,12
1.51,0.93,12
1.54,0.86,12
1.53,0.86,12
1.52,0.92,12
1.53,0.89,12
1.53,0.84,12
1.5,0.91,12
1.51,0.92,12
1.52,0.85,12
1.5,0.89,12
1.5,0.94,12
1.53,0.88,12
1.52,0.88,12
1.51,0.94,12
1.53,0.9,12
1.53,0.86,12
1.51,0.92,12
1.52,0.93,12
1.54,0.87,12
1.52,0.91,12
1.52,0.96,12
1.55,0.89,12
1.54,0.89,12
1.53,0.95,12
1.54,0.91,12
1.55,0.87,12
1.52,0.94,12
1.53,0.95,12
1.55,0.88,12
1.53,0.91,12
1.52,0.96,12
1.55,0.9,12
1.54,0.89,12
1.53,0.96,12
1.55,0.93,12
1.55,0.89,12
1.52,0.95,12
1.53,0.95,12
1.56,0.89,12
1.54,0.93,12
1.53,0.97,12
1.56,0.9,12
1.55,0.91,12
1.53,0.98,12
1.55,0.94,12
1.56,0.9,12
1.53,0.96,12
1.54,0.96,12
1.55,0.89,12
1.53,0.92,12
1.53,0.97,12
1.56,0.91,12
1.54,0.91,12
1.52,0.98,12
1.54,0.94,12
1.54,0.9,12
1.51,0.96,12
1.52,0.96,12
1.54,0.89,12
1.52,0.93,12
1.52,0.97,12
1.54,0.91,12
1.53,0.91,12
1.51,0.97,12
1.53,0.94,12
1.54,0.89,12
1.51,0.95,12
1.52,0.95,12
1.54,0.89,12
1.51,0.93,12
1.51,0.97,12
1.53,0.91,12
1.52,0.91,12
1.51,0.97,12
1.53,0.94,12
1.53,0.89,12
1.51,0.95,12
1.52,0.95,12
1.54,0.88,12
1.52,0.92,12
1.52,0.97,12
1.55,0.9,12
1.53,0.9,12
1.52,0.97,12
1.54,0.93,12
1.54,0.88,12
1.51,0.95,12
1.53,0.95,12
1.54,0.89,12
1.53,0.93,12
1.52,0.96,12
1.55,0.89,12
1.54,0.89,12
1.53,0.95,12
1.55,0.9,12
1.55,0.87,12
1.53,0.94,12
1.54,0.94,12
1.55,0.87,12
1.53,0.91,12
1.52,0.95,12
1.55,0.89,12
1.54,0.9,12
1.53,0.97,12
1.55,0.93,12
1.55,0.89,12
1.53,0.95,12
1.54,0.96,12
1.55,0.9,12
1.54,0.95,12
1.54,1.0,12
1.57,0.94,12
1.56,0.96,12
1.55,1.03,12
1.57,1.0,12
1.57,0.97,12
1.54,1.04,12
1.55,1.05,12
1.56,1.0,12
1.54,1.06,12
1.54,1.12,12
1.57,1.07,12
1.55,1.09,12
1.53,1.18,12
1.55,1.15,12
1.55,1.13,12
1.52,1.21,12
1.53,1.23,12
1.55,1.18,12
1.53,1.23,12
1.52,1.28,12
1.55,1.22,12
1.54,1.22,12
1.52,1.3,12
1.54,1.27,12
1.54,1.23,12
1.51,1.31,12
1.53,1.32,12
1.55,1.26,12
1.53,1.31,12
1.53,1.35,12
1.56,1.28,12
1.55,1.29,12
1.53,1.35,12
1.55,1.31,12
1.55,1.27,12
1.53,1.34,12
1.53,1.34,12
1.54,1.28,12
1.52,1.32,12
1.52,1.37,12
1.55,1.29,12
1.54,1.29,12
1.53,1.36,12
1.55,1.31,12
1.56,1.27,12
1.53,1.34,12
1.54,1.34,12
1.56,1.27,12
1.54,1.31,12
1.54,1.35,12
1.57,1.28,12
1.56,1.29,12
1.55,1.35,12
1.56,1.31,12
1.57,1.26,12
1.54,1.33,12
1.56,1.33,12
1.57,1.26,12
1.56,1.3,12
1.56,1.34,12
1.58,1.27,12
1.57,1.27,12
1.55,1.33,12
1.57,1.3,12
1.58,1.25,12
1.55,1.32,12
1.56,1.32,12
1.58,1.25,12
1.55,1.29,12
1.55,1.33,12
1.58,1.26,12
1.56,1.25,12
1.55,1.32,12
1.57,1.27,12
1.56,1.23,12
1.53,1.3,12
1.55,1.3,12
1.56,1.23,12
1.54,1.27,12
1.54,1.31,12
1.57,1.23,12
1.55,1.23,12
1.53,1.29,12
1.55,1.24,12
1.55,1.2,12
1.52,1.27,12
1.54,1.27,12
1.55,1.2,12
1.53,1.24,12
1.53,1.27,12
1.55,1.19,12
1.54,1.19,12
1.52,1.25,12
1.54,1.21,12
1.55,1.16,12
1.52,1.23,12
1.53,1.23,12
1.55,1.16,12
1.52,1.2,12
1.52,1.24,12
1.55,1.17,12
1.54,1.16,12
1.52,1.22,12
1.55,1.17,12
1.55,1.12,12
1.52,1.18,12
1.54,1.17,12
1.55,1.09,12
1.53,1.13,12
1.53,1.17,12
1.55,1.1,12
1.54,1.11,12
1.53,1.16,12
1.55,1.12,12
1.55,1.07,12
1.52,1.13,12
1.53,1.11,12
1.55,1.04,12
1.52,1.08,12
1.53,1.12,12
1.55,1.05,12
1.54,1.05,12
1.52,1.11,12
1.55,1.06,12
1.54,1.01,12
1.52,1.07,12
1.54,1.06,12
1.55,0.99,12
1.54,1.03,12
1.54,1.07,12
1.57,0.99,12
1.56,0.99,12
1.54,1.04,12
1.57,0.99,12
1.57,0.94,12
1.54,1.01,12
1.55,1.0,12
1.57,0.93,12
1.55,0.96,12
1.55,0.98,12
1.59,0.9,12
1.58,0.88,12
1.56,0.94,12
1.59,0.89,12
1.58,0.84,12
1.56,0.9,12
1.57,0.89,12
1.58,0.81,12
1.56,0.84,12
1.57,0.87,12
1.59,0.79,12
1.58,0.79,12
1.57,0.85,12
1.59,0.8,12
1.6,0.75,12
1.57,0.81,12
1.58,0.8,12
1.6,0.72,12
1.57,0.74,12
1.57,0.77,12
1.6,0.69,12
1.59,0.69,12
1.57,0.74,12
1.59,0.7,12
1.58,0.65,12
1.55,0.71,12
1.56,0.7,12
1.57,0.63,12
1.55,0.66,12
1.56,0.69,12
1.58,0.62,12
1.56,0.62,12
1.54,0.68,12
1.56,0.63,12
1.55,0.59,12
1.53,0.65,12
1.54,0.64,12
1.55,0.57,12
1.53,0.61,12
1.52,0.64,12
1.54,0.56,12
1.53,0.56,12
1.51,0.62,12
1.53,0.58,12
1.52,0.54,12
1.5,0.61,12
1.51,0.6,12
1.53,0.55,12
1.5,0.59,12
1.51,0.63,12
1.53,0.56,12
1.52,0.56,12
1.51,0.62,12
1.53,0.58,12
1.52,0.55,12
1.5,0.62,12
1.51,0.62,12
1.53,0.55,12
1.51,0.59,12
1.51,0.63,12
1.54,0.55,12
1.52,0.56,12
1.51,0.62,12
1.53,0.58,12
1.52,0.54,12
1.49,0.61,12
1.5,0.6,12
1.51,0.54,12
1.49,0.58,12
1.49,0.62,12
1.51,0.55,12
1.51,0.56,12
1.5,0.62,12
1.52,0.58,12
1.52,0.53,12
1.49,0.59,12
1.5,0.57,12
1.5,0.5,12
1.47,0.53,12
1.47,0.55,12
1.49,0.48,12
1.47,0.49,12
1.46,0.55,12
1.49,0.5,12
1.48,0.46,12
1.46,0.53,12
1.48,0.51,12
1.49,0.45,12
1.47,0.49,12
1.47,0.53,12
1.5,0.46,12
1.49,0.47,12
1.47,0.54,12
1.5,0.49,12
1.5,0.46,12
1.47,0.53,12
1.48,0.52,12
1.49,0.45,12
1.47,0.5,12
1.47,0.53,12
1.5,0.46,12
1.49,0.48,12
1.47,0.55,12
1.5,0.51,12
1.49,0.47,12
1.47,0.55,12
1.48,0.54,12
1.49,0.47,12
1.47,0.51,12
1.48,0.55,12
1.5,0.48,12
1.48,0.49,12
1.47,0.55,12
1.49,0.51,12
1.49,0.48,12
1.46,0.55,12
1.47,0.54,12
1.49,0.47,12
1.47,0.5,12
1.47,0.53,12
1.5,0.46,12
1.48,0.47,12
1.47,0.54,12
1.48,0.49,12
1.48,0.46,12
1.45,0.53,12
1.47,0.53,12
1.49,0.46,12
1.47,0.51,12
1.47,0.54,12
1.5,0.47,12
1.48,0.48,12
1.47,0.55,12
1.5,0.51,12
1.5,0.48,12
1.47,0.55,12
1.49,0.54,12
1.5,0.48,12
1.48,0.52,12
1.49,0.55,12
1.52,0.49,12
1.51,0.5,12
1.49,0.57,12
1.52,0.53,12
1.51,0.5,12
1.49,0.57,12
1.5,0.55,12
1.52,0.49,12
1.5,0.53,12
1.51,0.57,12
1.53,0.51,12
1.52,0.52,12
1.51,0.58,12
1.53,0.54,12
1.52,0.5,12
1.5,0.57,12
1.51,0.56,12
1.53,0.5,12
1.5,0.55,12
1.51,0.58,12
1.53,0.51,12
1.52,0.52,12
1.5,0.58,12
1.52,0.54,12
1.52,0.51,12
1.49,0.58,12
1.51,0.57,12
1.52,0.51,12
1.5,0.56,12
1.5,0.58,12
1.52,0.51,12
1.51,0.53,12
1.49,0.59,12
1.52,0.54,12
1.51,0.51,12
1.49,0.58,12
1.51,0.57,12
1.52,0.51,12
1.5,0.55,12
1.51,0.58,12
1.54,0.52,12
1.52,0.53,12
1.51,0.6,13
1.54,0.56,13
1.53,0.52,13
1.51,0.59,13
1.52,0.58,13
1.54,0.52,13
1.52,0.57,13
1.53,0.6,13
1.55,0.53,13
1.53,0.54,13
1.52,0.6,13
1.54,0.56,13
1.54,0.52,13
1.51,0.59,13
1.53,0.58,13
1.54,0.51,13
1.52,0.55,13
1.52,0.58,13
1.55,0.51,13
1.53,0.53,13
1.52,0.6,13
1.54,0.55,13
1.54,0.52,13
1.51,0.59,13
1.53,0.57,13
1.54,0.51,13
1.51,0.55,13
1.52,0.59,13
1.54,0.52,13
1.53,0.55,13
1.52,0.61,13
1.54,0.56,13
1.53,0.53,13
1.51,0.6,13
1.52,0.58,13
1.53,0.52,13
1.5,0.57,13
1.51,0.6,13
1.54,0.53,13
1.53,0.54,13
1.52,0.61,13
1.54,0.56,13
1.53,0.53,13
1.51,0.61,13
1.52,0.59,13
1.53,0.53,13
1.51,0.58,13
1.52,0.61,13
1.54,0.54,13
1.53,0.55,13
1.51,0.61,13
1.53,0.56,13
1.52,0.53,13
1.5,0.6,13
1.51,0.58,13
1.52,0.52,13
1.5,0.58,13
1.51,0.61,13
1.53,0.54,13
1.52,0.55,13
1.51,0.61,13
1.53,0.55,13
1.52,0.52,13
1.5,0.59,13
1.51,0.57,13
1.53,0.52,13
1.5,0.57,13
1.51,0.6,13
1.53,0.54,13
1.52,0.56,13
1.51,0.62,13
1.54,0.57,13
1.54,0.54,13
1.51,0.6,13
1.53,0.59,13
1.54,0.53,13
1.51,0.58,13
1.51,0.61,13
1.53,0.54,13
1.52,0.55,13
1.51,0.61,13
1.53,0.57,13
1.52,0.53,13
1.5,0.6,13
1.51,0.58,13
1.53,0.52,13
1.5,0.57,13
1.51,0.6,13
1.53,0.53,13
1.51,0.55,13
1.49,0.61,13
1.51,0.56,13
1.51,0.53,13
1.49,0.6,13
1.51,0.58,13
1.52,0.52,13
1.5,0.58,13
1.51,0.61,13
1.53,0.54,13
1.52,0.55,13
1.51,0.61,13
1.53,0.56,13
1.53,0.53,13
1.51,0.61,13
1.53,0.59,13
1.54,0.54,13
1.52,0.58,13
1.53,0.61,13
1.55,0.55,13
1.53,0.57,13
1.52,0.63,13
1.54,0.58,13
1.52,0.56,13
1.5,0.63,13
1.52,0.61,13
1.53,0.55,13
1.51,0.6,13
1.52,0.63,13
1.54,0.56,13
1.52,0.57,13
1.52,0.63,13
1.54,0.59,13
1.53,0.57,13
1.51,0.64,13
1.52,0.63,13
1.52,0.57,13
1.49,0.63,13
1.5,0.65,13
1.52,0.58,13
1.51,0.6,13
1.5,0.67,13
1.53,0.62,13
1.52,0.6,13
1.5,0.68,13
1.51,0.66,13
1.53,0.6,13
1.51,0.65,13
1.52,0.68,13
1.54,0.6,13
1.53,0.62,13
1.51,0.68,13
1.54,0.63,13
1.54,0.61,13
1.52,0.68,13
1.53,0.66,13
1.54,0.6,13
1.51,0.65,13
1.52,0.68,13
1.53,0.61,13
1.51,0.63,13
1.5,0.69,13
1.53,0.64,13
1.53,0.61,13
1.51,0.68,13
1.53,0.66,13
1.54,0.6,13
1.51,0.66,13
1.52,0.68,13
1.54,0.61,13
1.52,0.62,13
1.51,0.68,13
1.54,0.62,13
1.52,0.6,13
1.5,0.67,13
1.51,0.66,13
1.53,0.6,13
1.5,0.66,13
1.51,0.68,13
1.53,0.61,13
1.51,0.63,13
1.5,0.69,13
1.53,0.64,13
1.52,0.61,13
1.49,0.69,13
1.51,0.67,13
1.52,0.61,13
1.5,0.65,13
1.5,0.68,13
1.52,0.6,13
1.5,0.62,13
1.49,0.68,13
1.52,0.62,13
1.52,0.6,13
1.5,0.68,13
1.51,0.66,13
1.52,0.6,13
1.5,0.65,13
1.5,0.66,13
1.53,0.58,13
1.51,0.6,13
1.5,0.65,13
1.53,0.6,13
1.51,0.58,13
1.49,0.66,13
1.51,0.64,13
1.52,0.59,13
1.49,0.64,13
1.49,0.66,13
1.51,0.58,13
1.5,0.6,13
1.49,0.66,13
1.52,0.61,13
1.51,0.59,13
1.49,0.65,13
1.5,0.64,13
1.52,0.58,13
1.49,0.64,13
1.5,0.66,13
1.52,0.59,13
1.51,0.61,13
1.49,0.66,13
1.52,0.6,13
1.51,0.58,13
1.49,0.65,13
1.51,0.63,13
1.53,0.58,13
1.5,0.63,13
1.51,0.65,13
1.53,0.58,13
1.51,0.6,13
1.5,0.66,13
1.53,0.6,13
1.52,0.59,13
1.5,0.66,13
1.51,0.63,13
1.52,0.57,13
1.49,0.62,13
1.49,0.64,13
1.51,0.58,13
1.49,0.6,13
1.48,0.66,13
1.51,0.6,13
1.5,0.58,13
1.48,0.64,13
1.49,0.62,13
1.5,0.57,13
1.47,0.63,13
1.48,0.65,13
1.5,0.58,13
1.48,0.6,13
1.47,0.65,13
1.5,0.59,13
1.49,0.57,13
1.47,0.64,13
1.49,0.62,13
1.5,0.57,13
1.47,0.62,13
1.48,0.63,13
1.49,0.56,13
1.48,0.59,13
1.47,0.65,13
1.5,0.6,13
1.5,0.58,13
1.48,0.65,13
1.49,0.62,13
1.51,0.56,13
1.47,0.61,13
1.48,0.64,13
1.5,0.57,13
1.48,0.6,13
1.47,0.65,13
1.5,0.6,13
1.49,0.58,13
1.48,0.65,13
1.49,0.62,13
1.51,0.57,13
1.48,0.64,13
1.49,0.66,13
1.51,0.59,13
1.5,0.62,13
1.49,0.67,13
1.52,0.6,13
1.51,0.58,13
1.49,0.65,13
1.5,0.63,13
1.51,0.58,13
1.48,0.64,13
1.49,0.65,13
1.51,0.58,13
1.5,0.6,13
1.48,0.65,13
1.51,0.59,13
1.51,0.57,13
1.49,0.64,13
1.5,0.62,13
1.51,0.56,13
1.48,0.62,13
1.49,0.64,13
1.51,0.58,13
1.49,0.6,13
1.48,0.66,13
1.51,0.6,13
1.51,0.58,13
1.49,0.65,13
1.51,0.62,13
1.52,0.57,13
1.5,0.63,13
1.5,0.65,13
1.52,0.58,13
1.5,0.61,13
1.49,0.66,13
1.51,0.6,13
1.5,0.58,13
1.49,0.64,13
1.51,0.62,13
1.52,0.57,13
1.49,0.64,13
1.5,0.65,13
1.52,0.59,13
1.51,0.61,13
1.49,0.66,13
1.52,0.61,13
1.52,0.6,13
1.5,0.67,13
1.52,0.65,13
1.53,0.6,13
1.5,0.65,13
1.51,0.67,13
1.53,0.6,13
1.52,0.62,13
1.51,0.68,13
1.54,0.63,13
1.53,0.62,13
1.51,0.68,13
1.53,0.66,13
1.54,0.6,13
1.51,0.66,13
1.52,0.67,13
1.54,0.61,13
1.52,0.64,13
1.51,0.7,13
1.54,0.64,13
1.53,0.63,13
1.52,0.69,13
1.53,0.67,13
1.54,0.61,13
1.51,0.67,13
1.51,0.69,13
1.53,0.63,13
1.52,0.66,13
1.51,0.71,13
1.54,0.65,13
1.53,0.64,13
1.52,0.71,13
1.53,0.68,13
1.54,0.63,13
1.51,0.69,13
1.52,0.71,13
1.54,0.63,13
1.52,0.66,13
1.5,0.71,13
1.53,0.65,13
1.52,0.64,13
1.51,0.72,13
1.53,0.69,13
1.54,0.64,13
1.5,0.7,13
1.51,0.71,13
1.52,0.65,13
1.5,0.68,13
1.5,0.74,13
1.53,0.68,13
1.52,0.66,13
1.5,0.73,13
1.52,0.7,13
1.53,0.64,13
1.5,0.71,13
1.51,0.72,13
1.52,0.65,13
1.51,0.68,13
1.5,0.73,13
1.53,0.67,13
1.53,0.66,13
1.51,0.73,13
1.52,0.71,13
1.53,0.66,13
1.5,0.72,13
1.51,0.73,13
1.52,0.66,13
1.51,0.69,13
1.5,0.74,13
1.53,0.68,13
1.52,0.67,13
1.5,0.74,13
1.52,0.71,13
1.52,0.66,13
1.49,0.72,13
1.5,0.73,13
1.52,0.67,13
1.51,0.7,13
1.5,0.75,13
1.54,0.69,13
1.53,0.68,13
1.51,0.75,13
1.52,0.72,13
1.53,0.67,13
1.5,0.74,13
1.51,0.76,13
1.52,0.69,13
1.51,0.71,13
1.49,0.76,13
1.52,0.69,13
1.51,0.68,13
1.48,0.75,13
1.5,0.72,13
1.51,0.67,13
1.48,0.74,13
1.48,0.75,13
1.5,0.68,13
1.49,0.7,13
1.48,0.76,13
1.51,0.69,13
1.5,0.68,13
1.48,0.75,13
1.5,0.72,13
1.51,0.67,13
1.49,0.74,13
1.5,0.74,13
1.52,0.68,13
1.5,0.71,13
1.49,0.76,13
1.52,0.69,13
1.51,0.69,13
1.49,0.75,13
1.51,0.72,13
1.51,0.67,13
1.48,0.73,13
1.49,0.74,13
1.5,0.68,13
1.49,0.72,13
1.48,0.77,13
1.51,0.7,13
1.5,0.69,13
1.48,0.75,13
1.5,0.72,13
1.51,0.67,13
1.49,0.74,13
1.5,0.75,13
1.51,0.68,13
1.49,0.72,13
1.48,0.76,13
1.51,0.7,13
1.5,0.7,13
1.48,0.76,13
1.49,0.73,13
1.5,0.68,13
1.47,0.75,13
1.48,0.76,13
1.5,0.69,13
1.48,0.72,13
1.47,0.77,13
1.5,0.7,13
1.49,0.7,13
1.47,0.76,13
1.49,0.73,13
1.5,0.68,13
1.47,0.75,13
1.48,0.76,13
1.5,0.69,13
1.48,0.72,13
1.48,0.77,13
1.51,0.7,13
1.5,0.7,13
1.48,0.77,13
1.5,0.75,13
1.5,0.7,13
1.47,0.77,13
1.48,0.77,13
1.5,0.7,13
1.47,0.73,13
1.46,0.78,13
1.5,0.71,13
1.49,0.7,13
1.48,0.77,13
1.51,0.74,13
1.52,0.69,13
1.49,0.75,13
1.5,0.75,13
1.51,0.68,13
1.49,0.71,13
1.48,0.76,13
1.51,0.69,13
1.5,0.69,13
1.49,0.76,13
1.5,0.73,13
1.51,0.69,13
1.48,0.77,13
1.49,0.77,13
1.5,0.69,13
1.47,0.72,13
1.46,0.76,13
1.48,0.69,13
1.48,0.69,13
1.46,0.76,13
1.48,0.72,13
1.49,0.68,13
1.46,0.75,13
1.47,0.75,13
1.48,0.69,13
1.47,0.72,13
1.47,0.76,13
1.5,0.7,13
1.49,0.69,13
1.48,0.76,13
1.5,0.72,13
1.51,0.68,13
1.48,0.75,13
1.49,0.75,13
1.51,0.69,13
1.49,0.73,13
1.48,0.77,13
1.51,0.7,13
1.5,0.69,13
1.48,0.76,13
1.51,0.72,13
1.51,0.68,13
1.48,0.75,13
1.5,0.76,13
1.51,0.7,13
1.49,0.74,13
1.49,0.78,13
1.51,0.71,13
1.5,0.71,13
1.49,0.78,13
1.51,0.75,13
1.51,0.71,13
1.48,0.78,13
1.49,0.79,13
1.51,0.72,13
1.48,0.76,13
1.48,0.79,13
1.51,0.73,13
1.5,0.72,13
1.48,0.79,13
1.5,0.75,13
1.51,0.72,13
1.48,0.78,13
1.49,0.79,13
1.51,0.73,13
1.48,0.77,13
1.48,0.81,13
1.51,0.75,13
1.5,0.75,13
1.48,0.82,13
1.5,0.78,13
1.51,0.74,13
1.48,0.81,13
1.5,0.81,13
1.51,0.74,13
1.5,0.78,13
1.49,0.83,13
1.52,0.77,13
1.51,0.77,13
1.49,0.83,13
1.5,0.79,13
1.51,0.75,13
1.48,0.81,13
1.49,0.81,13
1.5,0.74,13
1.48,0.79,13
1.49,0.84,13
1.52,0.78,13
1.51,0.79,13
1.5,0.87,13
1.52,0.85,13
1.52,0.82,13
1.5,0.91,13
1.51,0.92,13
1.53,0.87,13
1.51,0.93,13
1.51,0.99,13
1.53,0.93,13
1.51,0.95,13
1.5,1.04,13
1.52,1.02,13
1.52,0.99,13
1.49,1.07,13
1.5,1.08,13
1.51,1.03,13
1.49,1.08,13
1.49,1.14,13
1.51,1.09,13
1.5,1.11,13
1.49,1.19,13
1.51,1.16,13
1.5,1.14,13
1.48,1.22,13
1.49,1.22,13
1.5,1.16,13
1.48,1.21,13
1.47,1.26,13
1.5,1.2,13
1.49,1.21,13
1.48,1.28,13
1.5,1.25,13
1.5,1.21,13
1.48,1.28,13
1.49,1.28,13
1.51,1.22,13
1.48,1.26,13
1.49,1.31,13
1.52,1.24,13
1.51,1.24,13
1.49,1.31,13
1.51,1.27,13
1.51,1.23,13
1.48,1.3,13
1.5,1.3,13
1.51,1.23,13
1.49,1.27,13
1.49,1.3,13
1.52,1.23,13
1.5,1.23,13
1.48,1.3,13
1.5,1.25,13
1.5,1.21,13
1.48,1.28,13
1.49,1.28,13
1.5,1.21,13
1.49,1.25,13
1.49,1.29,13
1.52,1.22,13
1.5,1.22,13
1.49,1.28,13
1.5,1.24,13
1.5,1.2,13
1.47,1.27,13
1.48,1.27,13
1.5,1.2,13
1.47,1.23,13
1.48,1.27,13
1.5,1.19,13
1.49,1.2,13
1.48,1.26,13
1.5,1.21,13
1.49,1.17,13
1.47,1.23,13
1.48,1.23,13
1.5,1.16,13
1.47,1.2,13
1.48,1.23,13
1.51,1.15,13
1.5,1.15,13
1.49,1.21,13
1.52,1.16,13
1.52,1.11,13
1.49,1.16,13
1.51,1.14,13
1.52,1.06,13
1.5,1.09,13
1.5,1.11,13
1.53,1.02,13
1.52,1.01,13
1.51,1.05,13
1.53,0.99,13
1.52,0.93,13
1.49,0.98,13
1.5,0.96,13
1.53,0.88,13
1.51,0.9,13
1.51,0.93,13
1.54,0.84,13
1.52,0.84,13
1.5,0.88,13
1.52,0.82,13
1.52,0.77,13
1.5,0.83,13
1.51,0.81,13
1.53,0.74,13
1.51,0.78,13
1.51,0.81,13
1.53,0.74,13
1.51,0.73,13
1.5,0.79,13
1.52,0.74,13
1.51,0.7,13
1.48,0.76,13
1.49,0.75,13
1.5,0.69,13
1.48,0.74,13
1.49,0.78,13
1.52,0.72,13
1.51,0.73,13
1.49,0.79,13
1.52,0.74,13
1.51,0.7,13
1.49,0.78,13
1.5,0.77,13
1.51,0.71,13
1.49,0.75,13
1.5,0.79,13
1.53,0.72,13
1.51,0.73,13
1.5,0.8,13
1.52,0.75,13
1.51,0.72,13
1.49,0.79,13
1.51,0.78,13
1.53,0.71,13
1.51,0.75,13
1.51,0.77,13
1.53,0.69,13
1.51,0.69,13
1.5,0.74,13
1.52,0.69,13
1.51,0.66,13
1.48,0.72,13
1.49,0.71,13
1.51,0.65,13
1.48,0.7,13
1.49,0.73,13
1.52,0.66,13
1.51,0.68,13
1.49,0.74,13
1.52,0.69,13
1.51,0.66,13
1.5,0.73,13
1.51,0.72,13
1.53,0.66,13
1.5,0.71,13
1.5,0.74,13
1.52,0.67,13
1.5,0.68,13
1.48,0.74,13
1.51,0.69,13
1.5,0.66,13
1.47,0.73,13
1.49,0.73,13
1.51,0.67,13
1.48,0.72,13
1.49,0.75,13
1.52,0.69,13
1.5,0.7,13
1.49,0.76,13
1.51,0.72,13
1.51,0.69,13
1.49,0.76,13
1.5,0.74,13
1.51,0.69,13
1.49,0.74,13
1.49,0.77,13
1.51,0.7,13
1.5,0.71,13
1.49,0.76,13
1.51,0.71,13
1.51,0.67,13
1.49,0.73,13
1.5,0.71,13
1.51,0.65,13
1.49,0.7,13
1.49,0.73,13
1.52,0.66,13
1.5,0.67,13
1.48,0.73,13
1.5,0.68,13
1.5,0.66,13
1.47,0.73,13
1.49,0.72,13
1.51,0.67,13
1.48,0.72,13
1.49,0.75,13
1.51,0.68,13
1.49,0.7,13
1.48,0.75,13
1.51,0.7,13
1.5,0.68,13
1.48,0.75,13
1.5,0.73,13
1.51,0.68,13
1.49,0.73,13
1.49,0.76,13
1.52,0.68,13
1.5,0.7,13
1.49,0.75,13
1.51,0.7,13
1.5,0.67,13
1.49,0.74,13
1.5,0.73,13
1.52,0.67,13
1.49,0.72,13
1.5,0.75,13
1.52,0.69,13
1.5,0.7,13
1.48,0.76,13
1.5,0.71,13
1.49,0.68,13
1.47,0.75,13
1.49,0.73,13
1.5,0.68,13
1.48,0.73,13
1.49,0.76,13
1.51,0.68,13
1.49,0.7,13
1.48,0.76,13
1.51,0.71,13
1.51,0.68,13
1.49,0.75,13
1.5,0.73,13
1.51,0.67,13
1.48,0.72,13
1.49,0.75,13
1.51,0.68,14
1.49,0.7,14
1.48,0.76,14
1.51,0.71,14
1.5,0.68,14
1.48,0.75,14
1.49,0.73,14
1.51,0.67,14
1.48,0.72,14
1.49,0.75,14
1.51,0.68,14
1.49,0.71,14
1.48,0.77,14
1.51,0.72,14
1.5,0.69,14
1.48,0.76,14
1.5,0.74,14
1.51,0.69,14
1.48,0.74,14
1.49,0.77,14
1.51,0.7,14
1.49,0.72,14
1.48,0.77,14
1.51,0.72,14
1.51,0.69,14
1.49,0.77,14
1.51,0.75,14
1.52,0.69,14
1.49,0.74,14
1.5,0.76,14
1.52,0.69,14
1.5,0.71,14
1.49,0.78,14
1.52,0.73,14
1.51,0.7,14
1.49,0.76,14
1.5,0.74,14
1.51,0.68,14
1.48,0.74,14
1.49,0.76,14
1.51,0.69,14
1.49,0.71,14
1.48,0.77,14
1.51,0.71,14
1.51,0.69,14
1.49,0.76,14
1.51,0.74,14
1.52,0.69,14
1.49,0.75,14
1.49,0.77,14
1.51,0.7,14
1.5,0.72,14
1.49,0.77,14
1.52,0.72,14
1.51,0.69,14
1.49,0.76,14
1.51,0.74,14
1.52,0.69,14
1.49,0.74,14
1.49,0.77,14
1.51,0.7,14
1.49,0.72,14
1.47,0.78,14
1.5,0.72,14
1.49,0.7,14
1.47,0.76,14
1.49,0.74,14
1.5,0.69,14
1.48,0.75,14
1.49,0.77,14
1.51,0.7,14
1.5,0.72,14
1.49,0.78,14
1.52,0.72,14
1.51,0.7,14
1.49,0.77,14
1.5,0.75,14
1.51,0.69,14
1.48,0.76,14
1.49,0.78,14
1.51,0.7,14
1.49,0.73,14
1.48,0.78,14
1.5,0.72,14
1.49,0.69,14
1.47,0.76,14
1.49,0.74,14
1.5,0.69,14
1.48,0.75,14
1.49,0.78,14
1.51,0.71,14
1.49,0.72,14
1.48,0.78,14
1.51,0.72,14
1.5,0.69,14
1.48,0.76,14
1.5,0.74,14
1.51,0.69,14
1.48,0.74,14
1.49,0.77,14
1.51,0.7,14
1.5,0.73,14
1.49,0.79,14
1.52,0.73,14
1.52,0.71,14
1.5,0.77,14
1.52,0.75,14
1.53,0.69,14
1.5,0.75,14
1.51,0.77,14
1.53,0.7,14
1.52,0.73,14
1.51,0.79,14
1.54,0.73,14
1.53,0.72,14
1.51,0.79,14
1.53,0.76,14
1.54,0.71,14
1.51,0.77,14
1.51,0.79,14
1.53,0.72,14
1.52,0.74,14
1.51,0.8,14
1.54,0.74,14
1.53,0.73,14
1.51,0.79,14
1.52,0.77,14
1.53,0.71,14
1.5,0.76,14
1.51,0.78,14
1.53,0.71,14
1.51,0.74,14
1.5,0.8,14
1.53,0.74,14
1.52,0.72,14
1.5,0.79,14
1.52,0.76,14
1.54,0.71,14
1.51,0.77,14
1.51,0.79,14
1.53,0.72,14
1.51,0.75,14
1.5,0.8,14
1.53,0.74,14
1.52,0.73,14
1.51,0.8,14
1.53,0.77,14
1.54,0.72,14
1.51,0.79,14
1.51,0.8,14
1.53,0.73,14
1.51,0.75,14
1.51,0.81,14
1.54,0.75,14
1.53,0.74,14
1.52,0.81,14
1.53,0.79,14
1.54,0.74,14
1.51,0.8,14
1.52,0.81,14
1.54,0.74,14
1.53,0.77,14
1.52,0.83,14
1.55,0.77,14
1.55,0.76,14
1.53,0.83,14
1.54,0.8,14
1.56,0.75,14
1.52,0.81,14
1.53,0.81,14
1.55,0.74,14
1.53,0.77,14
1.52,0.82,14
1.55,0.75,14
1.54,0.74,14
1.52,0.82,14
1.54,0.79,14
1.55,0.74,14
1.52,0.8,14
1.52,0.81,14
1.54,0.74,14
1.53,0.77,14
1.52,0.83,14
1.55,0.76,14
1.53,0.75,14
1.52,0.83,14
1.53,0.8,14
1.54,0.75,14
1.51,0.81,14
1.52,0.83,14
1.54,0.75,14
1.52,0.78,14
1.52,0.84,14
1.55,0.78,14
1.54,0.77,14
1.53,0.84,14
1.54,0.82,14
1.55,0.76,14
1.52,0.82,14
1.53,0.83,14
1.55,0.77,14
1.54,0.79,14
1.54,0.85,14
1.58,0.8,14
1.56,0.78,14
1.54,0.85,14
1.55,0.83,14
1.56,0.77,14
1.53,0.83,14
1.54,0.84,14
1.56,0.77,14
1.54,0.8,14
1.53,0.86,14
1.56,0.8,14
1.55,0.78,14
1.54,0.85,14
1.55,0.82,14
1.56,0.76,14
1.53,0.83,14
1.54,0.85,14
1.56,0.78,14
1.54,0.81,14
1.53,0.86,14
1.56,0.8,14
1.55,0.78,14
1.53,0.84,14
1.55,0.81,14
1.56,0.77,14
1.53,0.83,14
1.54,0.85,14
1.56,0.78,14
1.54,0.81,14
1.54,0.86,14
1.57,0.8,14
1.56,0.78,14
1.54,0.85,14
1.56,0.82,14
1.57,0.76,14
1.54,0.82,14
1.54,0.83,14
1.56,0.77,14
1.54,0.8,14
1.53,0.85,14
1.56,0.78,14
1.56,0.76,14
1.54,0.83,14
1.56,0.8,14
1.57,0.75,14
1.54,0.81,14
1.54,0.83,14
1.56,0.76,14
1.54,0.79,14
1.54,0.84,14
1.57,0.78,14
1.57,0.76,14
1.55,0.83,14
1.57,0.8,14
1.58,0.74,14
1.55,0.81,14
1.56,0.82,14
1.57,0.76,14
1.55,0.79,14
1.54,0.84,14
1.57,0.77,14
1.56,0.76,14
1.54,0.83,14
1.56,0.8,14
1.57,0.75,14
1.53,0.81,14
1.54,0.82,14
1.56,0.75,14
1.54,0.78,14
1.53,0.84,14
1.56,0.78,14
1.55,0.76,14
1.53,0.83,14
1.55,0.8,14
1.56,0.75,14
1.53,0.82,14
1.54,0.83,14
1.56,0.77,14
1.55,0.8,14
1.54,0.86,14
1.57,0.79,14
1.56,0.77,14
1.55,0.84,14
1.57,0.8,14
1.58,0.75,14
1.54,0.82,14
1.55,0.83,14
1.56,0.76,14
1.53,0.79,14
1.52,0.84,14
1.55,0.76,14
1.54,0.75,14
1.52,0.82,14
1.54,0.79,14
1.56,0.75,14
1.53,0.82,14
1.53,0.83,14
1.55,0.76,14
1.53,0.78,14
1.52,0.83,14
1.55,0.75,14
1.54,0.74,14
1.52,0.82,14
1.54,0.79,14
1.55,0.74,14
1.53,0.8,14
1.54,0.81,14
1.56,0.74,14
1.55,0.77,14
1.54,0.81,14
1.57,0.76,14
1.56,0.76,14
1.54,0.83,14
1.56,0.8,14
1.57,0.75,14
1.54,0.81,14
1.55,0.82,14
1.56,0.75,14
1.54,0.79,14
1.53,0.84,14
1.56,0.79,14
1.55,0.78,14
1.54,0.85,14
1.55,0.81,14
1.56,0.77,14
1.53,0.83,14
1.53,0.83,14
1.55,0.77,14
1.53,0.8,14
1.53,0.85,14
1.56,0.78,14
1.55,0.78,14
1.53,0.84,14
1.55,0.81,14
1.56,0.76,14
1.52,0.82,14
1.53,0.83,14
1.55,0.76,14
1.52,0.79,14
1.52,0.84,14
1.55,0.78,14
1.54,0.78,14
1.53,0.86,14
1.55,0.83,14
1.56,0.78,14
1.53,0.85,14
1.54,0.85,14
1.56,0.79,14
1.55,0.82,14
1.54,0.87,14
1.57,0.81,14
1.56,0.82,14
1.54,0.89,14
1.56,0.86,14
1.57,0.81,14
1.54,0.87,14
1.55,0.88,14
1.56,0.82,14
1.54,0.85,14
1.53,0.91,14
1.56,0.84,14
1.55,0.84,14
1.53,0.91,14
1.55,0.88,14
1.56,0.83,14
1.53,0.9,14
1.54,0.91,14
1.56,0.84,14
1.54,0.88,14
1.53,0.93,14
1.56,0.88,14
1.55,0.88,14
1.53,0.95,14
1.55,0.92,14
1.56,0.88,14
1.53,0.94,14
1.55,0.96,14
1.56,0.9,14
1.54,0.96,14
1.53,1.03,14
1.57,0.98,14
1.56,1.0,14
1.54,1.09,14
1.56,1.08,14
1.57,1.05,14
1.54,1.14,14
1.55,1.16,14
1.57,1.1,14
1.55,1.15,14
1.55,1.22,14
1.57,1.18,14
1.56,1.2,14
1.55,1.29,14
1.57,1.27,14
1.57,1.24,14
1.54,1.33,14
1.55,1.34,14
1.57,1.29,14
1.55,1.34,14
1.54,1.41,14
1.57,1.36,14
1.56,1.37,14
1.54,1.44,14
1.56,1.41,14
1.57,1.37,14
1.54,1.45,14
1.55,1.46,14
1.57,1.41,14
1.55,1.45,14
1.54,1.5,14
1.57,1.44,14
1.56,1.45,14
1.55,1.52,14
1.57,1.49,14
1.57,1.45,14
1.55,1.53,14
1.56,1.53,14
1.57,1.47,14
1.55,1.51,14
1.56,1.56,14
1.59,1.5,14
1.58,1.51,14
1.56,1.58,14
1.59,1.54,14
1.59,1.5,14
1.56,1.57,14
1.57,1.57,14
1.59,1.5,14
1.56,1.54,14
1.56,1.59,14
1.6,1.53,14
1.59,1.53,14
1.57,1.6,14
1.6,1.57,14
1.6,1.53,14
1.57,1.61,14
1.58,1.61,14
1.6,1.54,14
1.58,1.58,14
1.58,1.62,14
1.61,1.55,14
1.6,1.55,14
1.58,1.62,14
1.61,1.59,14
1.61,1.55,14
1.58,1.62,14
1.59,1.62,14
1.61,1.56,14
1.59,1.61,14
1.59,1.65,14
1.62,1.58,14
1.61,1.58,14
1.59,1.64,14
1.61,1.6,14
1.6,1.56,14
1.57,1.63,14
1.59,1.63,14
1.6,1.57,14
1.58,1.61,14
1.58,1.65,14
1.6,1.58,14
1.58,1.59,14
1.57,1.66,14
1.59,1.62,14
1.6,1.57,14
1.57,1.64,14
1.58,1.64,14
1.59,1.58,14
1.57,1.62,14
1.57,1.67,14
1.6,1.6,14
1.59,1.6,14
1.58,1.67,14
1.6,1.63,14
1.61,1.6,14
1.58,1.67,14
1.6,1.66,14
1.61,1.59,14
1.59,1.63,14
1.6,1.67,14
1.63,1.6,14
1.62,1.61,14
1.6,1.68,14
1.63,1.63,14
1.63,1.59,14
1.6,1.65,14
1.62,1.64,14
1.64,1.56,14
1.62,1.6,14
1.63,1.64,14
1.66,1.56,14
1.64,1.56,14
1.62,1.62,14
1.65,1.58,14
1.65,1.53,14
1.62,1.6,14
1.64,1.58,14
1.66,1.5,14
1.64,1.53,14
1.64,1.55,14
1.68,1.47,14
1.68,1.47,14
1.66,1.52,14
1.69,1.47,14
1.69,1.42,14
1.67,1.48,14
1.68,1.46,14
1.7,1.38,14
1.67,1.4,14
1.68,1.43,14
1.7,1.35,14
1.69,1.35,14
1.68,1.41,14
1.71,1.36,14
1.7,1.31,14
1.67,1.38,14
1.69,1.36,14
1.71,1.29,14
1.68,1.33,14
1.68,1.37,14
1.71,1.3,14
1.7,1.31,14
1.68,1.38,14
1.71,1.33,14
1.71,1.3,14
1.69,1.37,14
1.7,1.37,14
1.72,1.3,14
1.7,1.35,14
1.7,1.39,14
1.72,1.33,14
1.71,1.34,14
1.69,1.41,14
1.71,1.38,14
1.71,1.34,14
1.68,1.41,14
1.7,1.41,14
1.71,1.35,14
1.69,1.4,14
1.69,1.44,14
1.72,1.37,14
1.7,1.38,14
1.68,1.44,14
1.7,1.4,14
1.7,1.36,14
1.66,1.43,14
1.68,1.43,14
1.69,1.37,14
1.66,1.42,14
1.67,1.46,14
1.7,1.39,14
1.68,1.4,14
1.67,1.46,14
1.69,1.41,14
1.68,1.37,14
1.65,1.44,14
1.67,1.43,14
1.68,1.37,14
1.66,1.41,14
1.67,1.45,14
1.7,1.38,14
1.69,1.39,14
1.67,1.45,14
1.7,1.41,14
1.69,1.37,14
1.66,1.44,14
1.67,1.43,14
1.68,1.37,14
1.66,1.42,14
1.67,1.45,14
1.69,1.38,14
1.67,1.39,14
1.65,1.45,14
1.68,1.41,14
1.67,1.37,14
1.65,1.45,14
1.67,1.44,14
1.68,1.37,14
1.66,1.41,14
1.67,1.45,14
1.69,1.38,14
1.67,1.38,14
1.66,1.45,14
1.68,1.4,14
1.67,1.37,14
1.64,1.44,14
1.66,1.43,14
1.67,1.37,14
1.64,1.42,14
1.64,1.45,14
1.67,1.37,14
1.65,1.38,14
1.63,1.44,14
1.66,1.39,14
1.66,1.36,14
1.64,1.43,14
1.65,1.42,14
1.67,1.35,14
1.66,1.39,14
1.67,1.42,14
1.69,1.35,14
1.68,1.35,14
1.66,1.41,14
1.69,1.37,14
1.68,1.33,14
1.66,1.4,14
1.67,1.4,14
1.69,1.33,14
1.66,1.38,14
1.67,1.41,14
1.69,1.34,14
1.67,1.35,14
1.66,1.4,14
1.68,1.36,14
1.68,1.32,14
1.65,1.39,14
1.66,1.37,14
1.67,1.31,14
1.65,1.35,14
1.65,1.38,14
1.67,1.31,14
1.65,1.33,14
1.64,1.38,14
1.66,1.33,14
1.66,1.29,14
1.64,1.36,14
1.66,1.34,14
1.67,1.27,14
1.64,1.32,14
1.65,1.35,14
1.67,1.28,14
1.65,1.28,14
1.64,1.34,14
1.67,1.28,14
1.66,1.24,14
1.63,1.3,14
1.65,1.29,14
1.66,1.23,14
1.63,1.27,14
1.64,1.3,14
1.66,1.23,14
1.65,1.24,14
1.63,1.29,14
1.66,1.24,14
1.66,1.21,14
1.63,1.28,14
1.64,1.26,14
1.66,1.2,14
1.63,1.24,14
1.63,1.26,14
1.66,1.18,14
1.65,1.19,14
1.64,1.25,14
1.67,1.2,14
1.66,1.17,14
1.64,1.24,14
1.65,1.22,14
1.66,1.15,14
1.64,1.2,14
1.65,1.22,14
1.67,1.14,14
1.64,1.15,14
1.63,1.21,14
1.66,1.16,14
1.65,1.13,14
1.63,1.2,14
1.66,1.18,14
1.67,1.11,14
1.64,1.15,14
1.65,1.18,14
1.67,1.1,14
1.64,1.12,14
1.63,1.17,14
1.67,1.12,14
1.66,1.09,14
1.64,1.15,14
1.65,1.14,14
1.67,1.07,14
1.63,1.12,14
1.63,1.14,14
1.66,1.06,14
1.64,1.07,14
1.62,1.13,14
1.64,1.08,14
1.63,1.05,14
1.61,1.11,14
1.62,1.1,14
1.64,1.03,14
1.61,1.08,14
1.62,1.11,14
1.64,1.03,14
1.63,1.04,14
1.61,1.1,14
1.63,1.04,14
1.63,1.01,14
1.61,1.08,14
1.62,1.05,14
1.63,0.98,14
1.6,1.03,14
1.6,1.05,14
1.62,0.98,14
1.6,0.99,14
1.59,1.05,14
1.62,0.99,14
1.61,0.96,14
1.59,1.03,14
1.6,1.01,14
1.61,0.94,14
1.59,0.99,14
1.6,1.01,14
1.63,0.95,14
1.61,0.96,14
1.59,1.02,14
1.62,0.97,14
1.62,0.93,14
1.6,0.99,14
1.61,0.96,14
1.63,0.9,14
1.61,0.95,15
1.61,0.98,15
1.63,0.91,15
1.62,0.92,15
1.61,0.98,15
1.63,0.92,15
1.62,0.88,15
1.59,0.94,15
1.61,0.93,15
1.63,0.87,15
1.6,0.92,15
1.61,0.95,15
1.63,0.88,15
1.62,0.89,15
1.6,0.94,15
1.63,0.89,15
1.61,0.85,15
1.59,0.92,15
1.6,0.9,15
1.62,0.84,15
1.58,0.89,15
1.59,0.92,15
1.6,0.85,15
1.58,0.86,15
1.56,0.92,15
1.59,0.87,15
1.58,0.84,15
1.56,0.91,15
1.57,0.89,15
1.59,0.83,15
1.56,0.88,15
1.56,0.9,15
1.58,0.82,15
1.57,0.83,15
1.55,0.88,15
1.59,0.83,15
1.58,0.81,15
1.56,0.87,15
1.58,0.85,15
1.59,0.79,15
1.56,0.84,15
1.57,0.86,15
1.59,0.78,15
1.57,0.8,15
1.56,0.86,15
1.58,0.8,15
1.57,0.77,15
1.55,0.84,15
1.56,0.81,15
1.57,0.75,15
1.54,0.79,15
1.54,0.81,15
1.56,0.74,15
1.55,0.76,15
1.53,0.82,15
1.57,0.76,15
1.56,0.74,15
1.54,0.81,15
1.56,0.78,15
1.57,0.72,15
1.54,0.77,15
1.54,0.78,15
1.56,0.71,15
1.54,0.73,15
1.53,0.78,15
1.56,0.73,15
1.55,0.7,15
1.52,0.77,15
1.54,0.75,15
1.55,0.69,15
1.53,0.74,15
1.54,0.75,15
1.56,0.68,15
1.55,0.69,15
1.54,0.75,15
1.56,0.69,15
1.55,0.68,15
1.53,0.75,15
1.54,0.72,15
1.55,0.66,15
1.52,0.71,15
1.52,0.72,15
1.53,0.64,15
1.52,0.65,15
1.51,0.71,15
1.54,0.66,15
1.53,0.64,15
1.51,0.71,15
1.53,0.69,15
1.54,0.62,15
1.51,0.67,15
1.51,0.68,15
1.53,0.6,15
1.52,0.62,15
1.51,0.67,15
1.54,0.62,15
1.53,0.61,15
1.51,0.68,15
1.53,0.65,15
1.54,0.59,15
1.51,0.63,15
1.52,0.64,15
1.54,0.56,15
1.52,0.59,15
1.5,0.64,15
1.54,0.6,15
1.53,0.58,15
1.5,0.65,15
1.52,0.62,15
1.53,0.56,15
1.5,0.6,15
1.51,0.61,15
1.53,0.54,15
1.51,0.56,15
1.5,0.62,15
1.53,0.57,15
1.51,0.55,15
1.49,0.61,15
1.5,0.59,15
1.52,0.53,15
1.48,0.58,15
1.49,0.59,15
1.51,0.52,15
1.5,0.54,15
1.48,0.59,15
1.51,0.53,15
1.5,0.51,15
1.48,0.58,15
1.49,0.56,15
1.5,0.5,15
1.47,0.56,15
1.48,0.58,15
1.49,0.51,15
1.48,0.53,15
1.47,0.58,15
1.5,0.52,15
1.5,0.5,15
1.48,0.57,15
1.49,0.55,15
1.49,0.49,15
1.45,0.55,15
1.46,0.56,15
1.48,0.49,15
1.47,0.51,15
1.46,0.56,15
1.49,0.5,15
1.49,0.49,15
1.47,0.56,15
1.48,0.54,15
1.49,0.48,15
1.46,0.54,15
1.45,0.55,15
1.47,0.47,15
1.46,0.49,15
1.46,0.54,15
1.5,0.48,15
1.49,0.47,15
1.47,0.54,15
1.48,0.52,15
1.49,0.46,15
1.45,0.52,15
1.46,0.53,15
1.48,0.46,15
1.47,0.49,15
1.46,0.55,15
1.49,0.49,15
1.48,0.48,15
1.46,0.55,15
1.48,0.52,15
1.49,0.47,15
1.46,0.52,15
1.47,0.53,15
1.49,0.45,15
1.48,0.47,15
1.46,0.52,15
1.49,0.47,15
1.49,0.46,15
1.47,0.53,15
1.49,0.51,15
1.51,0.46,15
1.48,0.52,15
1.49,0.53,15
1.5,0.46,15
1.49,0.48,15
1.47,0.53,15
1.5,0.47,15
1.5,0.46,15
1.48,0.53,15
1.49,0.51,15
1.51,0.46,15
1.48,0.52,15
1.49,0.53,15
1.51,0.46,15
1.49,0.48,15
1.47,0.54,15
1.5,0.48,15
1.5,0.47,15
1.48,0.53,15
1.49,0.51,15
1.5,0.46,15
1.47,0.52,15
1.47,0.53,15
1.49,0.47,15
1.47,0.49,15
1.46,0.55,15
1.5,0.48,15
1.49,0.47,15
1.47,0.54,15
1.48,0.52,15
1.5,0.47,15
1.47,0.53,15
1.48,0.54,15
1.5,0.47,15
1.48,0.49,15
1.47,0.55,15
1.5,0.49,15
1.49,0.48,15
1.47,0.55,15
1.49,0.53,15
1.5,0.48,15
1.47,0.54,15
1.48,0.56,15
1.5,0.49,15
1.49,0.51,15
1.48,0.57,15
1.51,0.51,15
1.5,0.5,15
1.48,0.58,15
1.5,0.55,15
1.51,0.5,15
1.48,0.56,15
1.5,0.57,15
1.52,0.5,15
1.5,0.53,15
1.5,0.59,15
1.53,0.53,15
1.52,0.52,15
1.51,0.6,15
1.53,0.58,15
1.54,0.52,15
1.51,0.58,15
1.52,0.59,15
1.53,0.53,15
1.51,0.55,15
1.5,0.6,15
1.53,0.55,15
1.52,0.54,15
1.51,0.62,15
1.53,0.59,15
1.54,0.54,15
1.51,0.6,15
1.51,0.61,15
1.52,0.54,15
1.51,0.56,15
1.49,0.62,15
1.52,0.56,15
1.52,0.56,15
1.49,0.63,15
1.51,0.6,15
1.52,0.54,15
1.49,0.6,15
1.49,0.61,15
1.51,0.54,15
1.5,0.56,15
1.48,0.61,15
1.51,0.56,15
1.5,0.55,15
1.49,0.61,15
1.5,0.59,15
1.51,0.54,15
1.47,0.59,15
1.48,0.6,15
1.5,0.54,15
1.49,0.57,15
1.47,0.63,15
1.51,0.57,15
1.49,0.56,15
1.47,0.62,15
1.48,0.59,15
1.49,0.54,15
1.46,0.6,15
1.47,0.62,15
1.49,0.55,15
1.48,0.58,15
1.47,0.62,15
1.5,0.56,15
1.49,0.54,15
1.48,0.61,15
1.49,0.59,15
1.51,0.54,15
1.48,0.6,15
1.48,0.61,15
1.49,0.54,15
1.47,0.57,15
1.46,0.62,15
1.5,0.56,15
1.5,0.54,15
1.48,0.61,15
1.5,0.58,15
1.51,0.53,15
1.48,0.6,15
1.48,0.61,15
1.5,0.54,15
1.48,0.56,15
1.47,0.61,15
1.5,0.55,15
1.5,0.54,15
1.49,0.61,15
1.5,0.58,15
1.52,0.53,15
1.48,0.59,15
1.48,0.6,15
1.5,0.54,15
1.49,0.57,15
1.48,0.62,15
1.5,0.56,15
1.5,0.55,15
1.47,0.62,15
1.49,0.59,15
1.5,0.54,15
1.47,0.61,15
1.47,0.62,15
1.49,0.55,15
1.47,0.57,15
1.46,0.62,15
1.49,0.56,15
1.48,0.55,15
1.46,0.62,15
1.48,0.6,15
1.49,0.55,15
1.46,0.6,15
1.47,0.61,15
1.49,0.54,15
1.47,0.56,15
1.46,0.62,15
1.49,0.57,15
1.48,0.55,15
1.46,0.62,15
1.47,0.59,15
1.48,0.53,15
1.45,0.59,15
1.46,0.61,15
1.48,0.54,15
1.48,0.57,15
1.46,0.63,15
1.49,0.56,15
1.48,0.55,15
1.46,0.62,15
1.47,0.58,15
1.48,0.53,15
1.46,0.6,15
1.47,0.61,15
1.48,0.55,15
1.46,0.57,15
1.45,0.62,15
1.48,0.55,15
1.47,0.53,15
1.45,0.6,15
1.47,0.58,15
1.48,0.53,15
1.45,0.59,15
1.46,0.6,15
1.47,0.52,15
1.45,0.54,15
1.44,0.59,15
1.46,0.53,15
1.45,0.52,15
1.44,0.59,15
1.46,0.57,15
1.48,0.52,15
1.45,0.58,15
1.46,0.59,15
1.48,0.52,15
1.46,0.54,15
1.46,0.59,15
1.5,0.53,15
1.48,0.52,15
1.46,0.59,15
1.48,0.56,15
1.48,0.51,15
1.46,0.57,15
1.47,0.58,15
1.48,0.5,15
1.47,0.53,15
1.45,0.58,15
1.47,0.51,15
1.46,0.5,15
1.44,0.57,15
1.46,0.54,15
1.47,0.5,15
1.44,0.56,15
1.45,0.57,15
1.47,0.5,15
1.45,0.52,15
1.44,0.57,15
1.47,0.51,15
1.46,0.5,15
1.44,0.58,15
1.45,0.55,15
1.46,0.5,15
1.43,0.56,15
1.45,0.57,15
1.47,0.51,15
1.46,0.54,15
1.45,0.59,15
1.48,0.52,15
1.48,0.51,15
1.46,0.57,15
1.47,0.55,15
1.48,0.5,15
1.46,0.57,15
1.48,0.59,15
1.5,0.52,15
1.49,0.55,15
1.48,0.61,15
1.51,0.55,15
1.5,0.54,15
1.49,0.62,15
1.51,0.59,15
1.52,0.55,15
1.49,0.62,15
1.49,0.65,15
1.51,0.59,15
1.5,0.63,15
1.48,0.69,15
1.52,0.65,15
1.51,0.65,15
1.49,0.73,15
1.51,0.71,15
1.52,0.66,15
1.49,0.73,15
1.49,0.75,15
1.51,0.7,15
1.49,0.74,15
1.48,0.8,15
1.51,0.76,15
1.5,0.75,15
1.49,0.84,15
1.51,0.82,15
1.52,0.78,15
1.48,0.85,15
1.49,0.88,15
1.51,0.81,15
1.49,0.85,15
1.48,0.91,15
1.51,0.86,15
1.5,0.86,15
1.48,0.94,15
1.5,0.92,15
1.5,0.88,15
1.47,0.94,15
1.48,0.96,15
1.49,0.89,15
1.47,0.93,15
1.46,0.98,15
1.49,0.93,15
1.48,0.92,15
1.46,1.0,15
1.48,0.97,15
1.49,0.92,15
1.47,0.98,15
1.48,1.0,15
1.5,0.93,15
1.48,0.97,15
1.47,1.02,15
1.5,0.95,15
1.49,0.94,15
1.48,1.01,15
1.5,0.98,15
1.52,0.92,15
1.49,0.98,15
1.5,0.99,15
1.51,0.91,15
1.5,0.94,15
1.49,0.99,15
1.52,0.93,15
1.51,0.92,15
