horizontal,vertical,label
1.61,1.1,2
1.61,0.96,2
1.6,0.98,2
1.6,1.11,2
1.62,1.02,2
1.6,0.96,2
1.6,1.1,2
1.62,1.08,2
1.61,0.96,2
1.6,1.05,2
1.61,1.11,2
1.61,0.97,2
1.6,0.99,2
1.61,1.11,2
1.62,1.02,2
1.6,0.96,2
1.61,1.1,2
1.62,1.08,2
1.62,0.96,2
1.61,1.05,2
1.63,1.12,2
1.62,0.98,2
1.61,1.0,2
1.62,1.12,2
1.63,1.03,2
1.62,0.97,2
1.62,1.11,2
1.63,1.09,2
1.62,0.97,2
1.61,1.07,2
1.62,1.13,2
1.61,1.0,2
1.6,1.02,2
1.61,1.14,2
1.62,1.05,2
1.61,0.99,2
1.62,1.13,2
1.63,1.11,2
1.62,0.98,2
1.61,1.08,2
1.63,1.14,2
1.62,0.99,2
1.61,1.01,2
1.62,1.14,2
1.64,1.05,2
1.63,0.99,2
1.64,1.13,2
1.64,1.11,2
1.64,0.99,2
1.63,1.08,2
1.65,1.14,2
1.64,1.01,2
1.64,1.03,2
1.65,1.16,2
1.66,1.06,2
1.65,1.0,2
1.66,1.14,2
1.67,1.12,2
1.66,1.0,2
1.65,1.09,2
1.66,1.15,2
1.66,1.01,2
1.65,1.04,2
1.65,1.16,2
1.66,1.07,2
1.64,1.01,2
1.64,1.15,2
1.64,1.13,2
1.64,1.0,2
1.63,1.1,2
1.65,1.15,2
1.64,1.01,2
1.63,1.03,2
1.63,1.15,2
1.65,1.06,2
1.63,1.01,2
1.64,1.15,2
1.65,1.13,2
1.65,1.01,2
1.64,1.11,2
1.65,1.16,2
1.64,1.02,2
1.63,1.05,2
1.64,1.17,2
1.64,1.07,2
1.63,1.02,2
1.64,1.16,2
1.64,1.13,2
1.63,1.01,2
1.63,1.11,2
1.64,1.16,2
1.63,1.02,2
1.62,1.04,2
1.63,1.16,2
1.64,1.06,2
1.63,1.01,2
1.63,1.15,2
1.64,1.12,2
1.63,1.0,2
1.63,1.1,2
1.64,1.15,2
1.63,1.01,2
1.63,1.04,2
1.63,1.16,2
1.64,1.06,2
1.63,1.0,2
1.64,1.15,2
1.65,1.12,2
1.64,0.99,2
1.63,1.09,2
1.65,1.14,2
1.64,1.0,2
1.63,1.03,2
1.64,1.15,2
1.65,1.05,2
1.64,1.0,2
1.65,1.14,2
1.66,1.11,2
1.65,0.99,2
1.64,1.09,2
1.65,1.14,2
1.64,1.0,2
1.64,1.03,2
1.64,1.16,2
1.65,1.06,2
1.64,1.01,2
1.65,1.15,2
1.65,1.11,2
1.64,0.99,2
1.63,1.09,2
1.65,1.14,2
1.64,1.0,2
1.64,1.03,2
1.65,1.15,2
1.66,1.04,2
1.65,0.99,2
1.65,1.13,2
1.66,1.1,2
1.65,0.98,2
1.64,1.08,2
1.65,1.13,2
1.65,0.99,2
1.64,1.02,2
1.65,1.14,2
1.66,1.04,2
1.65,0.99,2
1.66,1.13,2
1.66,1.1,2
1.66,0.98,2
1.65,1.09,2
1.66,1.13,2
1.65,0.98,2
1.64,1.01,2
1.65,1.13,2
1.66,1.02,2
1.65,0.97,2
1.65,1.11,2
1.66,1.07,2
1.65,0.95,2
1.65,1.06,2
1.66,1.1,2
1.65,0.96,2
1.65,0.99,2
1.65,1.11,2
1.66,1.0,2
1.65,0.96,2
1.66,1.1,2
1.66,1.06,2
1.66,0.94,2
1.65,1.05,2
1.66,1.09,2
1.65,0.94,2
1.65,0.98,2
1.65,1.09,2
1.66,0.98,2
1.66,0.94,2
1.67,1.08,2
1.67,1.04,2
1.67,0.91,2
1.66,1.02,2
1.67,1.06,2
1.66,0.92,2
1.65,0.96,2
1.66,1.07,2
1.66,0.96,2
1.65,0.92,2
1.65,1.05,2
1.65,1.01,2
1.64,0.9,2
1.64,1.01,2
1.65,1.05,2
1.64,0.91,2
1.64,0.95,2
1.64,1.06,2
1.65,0.95,2
1.64,0.91,2
1.64,1.04,2
1.65,1.0,2
1.64,0.89,2
1.63,1.0,2
1.63,1.04,2
1.63,0.9,2
1.62,0.93,2
1.63,1.05,2
1.64,0.93,2
1.64,0.89,2
1.64,1.03,2
1.65,0.99,2
1.64,0.87,2
1.63,0.98,2
1.65,1.02,2
1.64,0.88,2
1.64,0.92,2
1.64,1.03,2
1.65,0.92,2
1.64,0.88,2
1.65,1.02,2
1.65,0.98,2
1.64,0.86,2
1.63,0.97,2
1.64,1.0,2
1.63,0.86,2
1.62,0.9,2
1.63,1.02,2
1.63,0.91,2
1.62,0.87,2
1.64,1.01,2
1.64,0.96,2
1.64,0.84,2
1.63,0.94,2
1.64,0.98,2
1.63,0.84,2
1.62,0.88,2
1.62,0.99,2
1.62,0.88,2
1.61,0.83,2
1.62,0.96,2
1.62,0.92,2
1.61,0.8,2
1.6,0.92,2
1.62,0.96,2
1.61,0.82,2
1.6,0.86,2
1.61,0.97,2
1.62,0.85,2
1.61,0.8,2
1.63,0.94,2
1.63,0.89,2
1.63,0.77,2
1.62,0.89,2
1.64,0.93,2
1.63,0.79,2
1.62,0.83,2
1.62,0.94,2
1.63,0.82,2
1.61,0.77,2
1.62,0.91,2
1.62,0.87,2
1.61,0.76,2
1.61,0.87,2
1.62,0.92,2
1.61,0.78,2
1.61,0.82,2
1.61,0.93,2
1.62,0.82,2
1.61,0.78,2
1.62,0.91,2
1.62,0.87,2
1.62,0.75,2
1.61,0.87,2
1.62,0.91,2
1.61,0.77,2
1.6,0.81,2
1.61,0.92,2
1.61,0.8,2
1.6,0.76,2
1.61,0.9,2
1.61,0.85,2
1.61,0.73,2
1.6,0.85,2
1.61,0.88,2
1.6,0.74,2
1.6,0.78,2
1.6,0.89,2
1.61,0.77,2
1.6,0.74,2
1.61,0.87,2
1.62,0.83,2
1.61,0.71,2
1.61,0.83,2
1.62,0.86,2
1.61,0.72,2
1.61,0.76,2
1.62,0.87,2
1.62,0.75,2
1.61,0.71,2
1.61,0.85,2
1.61,0.8,2
1.61,0.68,2
1.6,0.8,2
1.6,0.83,2
1.59,0.7,2
1.59,0.74,2
1.6,0.85,2
1.6,0.73,2
1.6,0.7,2
1.6,0.84,2
1.61,0.79,2
1.6,0.67,2
1.6,0.79,2
1.61,0.82,2
1.61,0.68,2
1.61,0.73,2
1.61,0.83,2
1.62,0.71,2
1.61,0.68,2
1.61,0.82,2
1.62,0.77,2
1.61,0.66,2
1.61,0.77,2
1.62,0.8,2
1.62,0.67,2
1.61,0.71,2
1.62,0.82,2
1.62,0.7,2
1.6,0.66,2
1.61,0.8,2
1.61,0.75,2
1.6,0.64,2
1.59,0.76,2
1.6,0.79,2
1.6,0.65,2
1.59,0.7,2
1.6,0.81,2
1.6,0.69,2
1.58,0.66,2
1.59,0.79,2
1.59,0.74,2
1.58,0.63,2
1.57,0.75,2
1.59,0.78,2
1.58,0.64,2
1.57,0.69,2
1.58,0.8,2
1.59,0.68,2
1.57,0.65,2
1.58,0.78,2
1.59,0.73,2
1.58,0.63,2
1.57,0.75,2
1.58,0.78,2
1.57,0.64,2
1.56,0.69,2
1.57,0.79,2
1.57,0.67,2
1.56,0.64,2
1.57,0.78,2
1.58,0.73,2
1.57,0.63,2
1.57,0.75,2
1.58,0.77,2
1.57,0.63,2
1.56,0.69,2
1.57,0.79,2
1.57,0.67,2
1.56,0.64,2
1.57,0.78,2
1.56,0.73,2
1.55,0.62,2
1.54,0.74,2
1.55,0.77,2
1.54,0.63,2
1.54,0.69,2
1.55,0.79,2
1.55,0.67,2
1.55,0.65,2
1.56,0.78,2
1.56,0.73,2
1.55,0.63,2
1.55,0.75,2
1.55,0.77,2
1.54,0.64,2
1.54,0.69,2
1.54,0.79,2
1.55,0.67,2
1.53,0.64,2
1.54,0.78,2
1.54,0.72,2
1.53,0.62,2
1.52,0.74,2
1.54,0.77,2
1.53,0.63,2
1.52,0.69,2
1.53,0.79,2
1.54,0.66,2
1.53,0.64,2
1.54,0.78,2
1.55,0.73,2
1.54,0.63,2
1.54,0.76,2
1.55,0.78,2
1.54,0.64,2
1.54,0.7,2
1.54,0.81,2
1.54,0.69,2
1.53,0.67,2
1.54,0.81,2
1.54,0.76,2
1.53,0.66,2
1.52,0.79,2
1.53,0.81,2
1.52,0.68,2
1.51,0.74,2
1.52,0.84,2
1.52,0.71,2
1.51,0.69,2
1.52,0.83,2
1.53,0.77,2
1.52,0.67,2
1.52,0.79,2
1.53,0.82,2
1.52,0.68,2
1.51,0.74,2
1.53,0.84,2
1.53,0.71,2
1.52,0.69,2
1.53,0.83,2
1.53,0.77,2
1.52,0.67,2
1.52,0.8,2
1.53,0.83,2
1.52,0.69,2
1.51,0.75,2
1.53,0.86,2
1.53,0.74,2
1.52,0.72,2
1.53,0.85,2
1.54,0.8,2
1.53,0.7,2
1.53,0.83,2
1.54,0.86,2
1.53,0.72,2
1.52,0.78,2
1.53,0.89,2
1.53,0.76,2
1.52,0.74,2
1.53,0.88,2
1.53,0.83,2
1.52,0.73,2
1.52,0.86,2
1.54,0.88,2
1.53,0.75,2
1.52,0.81,2
1.54,0.91,2
1.54,0.79,2
1.54,0.77,2
1.55,0.9,2
1.56,0.85,2
1.54,0.75,2
1.54,0.88,2
1.54,0.9,2
1.53,0.77,2
1.52,0.83,2
1.53,0.93,2
1.54,0.8,2
1.53,0.79,2
1.54,0.93,2
1.55,0.87,2
1.53,0.78,2
1.53,0.91,2
1.54,0.92,2
1.53,0.79,2
1.52,0.85,2
1.54,0.95,2
1.54,0.83,2
1.53,0.82,2
1.54,0.96,2
1.55,0.9,2
1.53,0.8,2
1.55,0.93,2
1.57,0.95,2
1.57,0.81,2
1.58,0.88,2
1.62,0.98,2
1.64,0.86,2
1.66,0.85,2
1.69,0.99,2
1.73,0.93,2
1.73,0.85,2
1.75,0.99,2
1.79,1.01,2
1.8,0.89,2
1.81,0.96,2
1.85,1.06,2
1.87,0.94,2
1.88,0.93,2
1.9,1.07,2
1.92,1.02,2
1.92,0.94,2
1.92,1.07,2
1.94,1.09,2
1.94,0.97,2
1.94,1.04,2
1.96,1.14,2
1.96,1.02,2
1.96,1.01,2
1.96,1.15,2
1.96,1.09,2
1.96,0.99,2
1.96,1.12,2
1.96,1.13,2
1.96,0.99,2
1.96,1.05,2
1.96,1.15,2
1.96,1.02,2
1.96,1.01,2
1.96,1.15,2
1.96,1.09,2
1.96,0.99,2
1.96,1.12,2
1.96,1.13,2
1.96,1.0,2
1.96,1.06,2
1.96,1.15,2
1.96,1.03,2
1.96,1.02,2
1.96,1.15,2
1.96,1.08,2
1.96,0.99,2
1.96,1.11,2
1.96,1.12,2
1.96,0.98,2
1.96,1.05,2
1.96,1.14,2
1.96,1.01,2
1.96,1.0,2
1.96,1.13,2
1.96,1.06,2
1.96,0.97,2
1.96,1.1,2
1.96,1.11,2
1.96,0.97,2
1.96,1.04,2
1.96,1.12,2
1.96,0.99,2
1.96,0.98,2
1.96,1.11,2
1.96,1.04,2
1.95,0.95,2
1.95,1.08,2
1.95,1.09,2
1.95,0.96,2
1.95,1.03,2
1.96,1.12,2
1.96,0.98,2
1.95,0.98,2
1.95,1.11,2
1.95,1.05,2
1.95,0.96,2
1.95,1.09,2
1.95,1.1,2
1.95,0.96,2
1.95,1.03,2
1.96,1.12,2
1.96,0.98,2
1.95,0.97,2
1.95,1.1,2
1.95,1.03,2
1.94,0.93,2
1.94,1.06,2
1.95,1.07,2
1.95,0.93,2
1.95,1.0,2
1.96,1.09,2
1.96,0.95,2
1.95,0.95,2
1.95,1.08,2
1.95,1.01,2
1.93,0.92,2
1.93,1.05,2
1.93,1.06,2
1.93,0.92,2
1.93,1.0,2
1.94,1.08,2
1.94,0.95,2
1.93,0.94,2
1.94,1.08,2
1.94,1.0,2
1.92,0.91,2
1.92,1.04,2
1.93,1.04,2
1.92,0.91,2
1.91,0.98,2
1.93,1.07,2
1.93,0.93,2
1.91,0.92,2
1.92,1.05,2
1.92,0.98,2
1.9,0.89,2
1.9,1.02,2
1.91,1.02,2
1.9,0.89,2
1.89,0.96,2
1.91,1.05,2
1.91,0.91,2
1.9,0.91,2
1.91,1.04,2
1.91,0.96,2
1.89,0.87,2
1.89,1.0,2
1.89,1.0,2
1.88,0.88,2
1.87,0.95,2
1.88,1.03,2
1.88,0.9,2
1.87,0.89,2
1.87,1.02,2
1.87,0.94,2
1.85,0.86,2
1.85,1.0,2
1.86,0.99,2
1.85,0.86,2
1.84,0.94,2
1.86,1.01,2
1.85,0.88,2
1.83,0.88,2
1.84,1.01,2
1.84,0.93,2
1.83,0.85,2
1.84,0.98,2
1.84,0.97,2
1.82,0.84,2
1.8,0.91,2
1.78,0.98,2
1.74,0.83,2
1.7,0.82,2
1.67,0.94,2
1.63,0.85,2
1.57,0.75,2
1.53,0.87,2
1.5,0.85,2
1.46,0.71,2
1.42,0.77,2
1.4,0.83,2
1.37,0.68,2
1.33,0.68,2
1.32,0.79,2
1.31,0.71,2
1.28,0.62,2
1.27,0.75,2
1.27,0.75,2
1.26,0.62,2
1.25,0.69,2
1.27,0.77,2
1.27,0.63,2
1.27,0.64,2
1.28,0.77,2
1.29,0.69,2
1.27,0.61,2
1.27,0.74,2
1.27,0.74,2
1.26,0.62,2
1.25,0.7,2
1.27,0.77,2
1.27,0.64,2
1.26,0.64,2
1.28,0.77,2
1.29,0.69,2
1.27,0.61,2
1.27,0.75,2
1.28,0.74,2
1.27,0.61,2
1.27,0.69,2
1.28,0.76,2
1.28,0.62,2
1.27,0.63,2
1.28,0.76,2
1.29,0.68,2
1.28,0.61,2
1.28,0.74,2
1.3,0.74,2
1.28,0.61,2
1.27,0.69,2
1.28,0.77,2
1.26,0.63,2
1.24,0.65,2
1.24,0.78,2
1.24,0.7,2
1.23,0.63,2
1.23,0.77,2
1.24,0.76,2
1.23,0.63,2
1.23,0.71,2
1.24,0.79,2
1.24,0.65,2
1.23,0.66,2
1.24,0.79,2
1.25,0.71,2
1.24,0.64,2
1.24,0.77,2
1.25,0.76,2
1.25,0.64,2
1.24,0.72,2
1.26,0.79,2
1.26,0.65,2
1.24,0.66,2
1.25,0.79,2
1.26,0.7,2
1.24,0.64,2
1.24,0.78,2
1.26,0.77,2
1.26,0.64,2
1.25,0.73,2
1.27,0.8,2
1.28,0.66,2
1.27,0.67,2
1.28,0.8,2
1.29,0.71,2
1.27,0.64,2
1.28,0.78,2
1.29,0.77,2
1.29,0.64,2
1.28,0.73,2
1.31,0.8,2
1.3,0.66,2
1.29,0.67,2
1.3,0.79,2
1.31,0.71,2
1.29,0.64,2
1.3,0.77,2
1.32,0.76,2
1.31,0.64,2
1.3,0.72,2
1.31,0.79,2
1.31,0.65,2
1.3,0.66,2
1.31,0.79,2
1.32,0.7,2
1.3,0.64,2
1.31,0.77,2
1.32,0.75,2
1.32,0.63,2
1.32,0.72,2
1.33,0.79,2
1.33,0.65,2
1.32,0.67,2
1.33,0.79,2
1.34,0.7,2
1.33,0.64,2
1.33,0.78,2
1.34,0.76,2
1.34,0.64,2
1.33,0.73,2
1.35,0.79,2
1.35,0.65,2
1.34,0.67,2
1.35,0.79,2
1.36,0.71,2
1.35,0.64,2
1.35,0.78,2
1.36,0.76,2
1.35,0.64,2
1.34,0.72,2
1.35,0.78,2
1.34,0.65,2
1.33,0.66,2
1.34,0.78,2
1.35,0.69,2
1.34,0.63,2
1.35,0.76,2
1.36,0.74,2
1.36,0.62,2
1.35,0.71,2
1.36,0.77,2
1.36,0.63,2
1.35,0.65,2
1.36,0.77,2
1.37,0.67,2
1.36,0.61,2
1.36,0.75,2
1.37,0.72,2
1.37,0.6,2
1.36,0.69,2
1.37,0.75,2
1.36,0.61,2
1.36,0.63,2
1.37,0.74,2
1.38,0.65,2
1.37,0.59,2
1.38,0.72,2
1.39,0.69,2
1.38,0.57,2
1.37,0.67,2
1.39,0.72,2
1.38,0.58,2
1.37,0.6,2
1.38,0.72,2
1.39,0.62,2
1.38,0.56,2
1.38,0.7,2
1.39,0.67,2
1.38,0.55,2
1.37,0.65,2
1.39,0.7,2
1.38,0.57,2
1.38,0.59,2
1.38,0.71,2
1.39,0.61,2
1.38,0.56,2
1.39,0.69,2
1.39,0.66,2
1.39,0.55,2
1.38,0.64,2
1.39,0.69,2
1.38,0.56,2
1.38,0.58,2
1.39,0.7,2
1.4,0.6,2
1.39,0.54,2
1.4,0.68,2
1.4,0.65,2
1.4,0.53,2
1.39,0.62,2
1.4,0.67,2
1.4,0.53,2
1.39,0.55,2
1.4,0.67,2
1.4,0.57,2
1.39,0.52,2
1.39,0.65,2
1.4,0.63,2
1.4,0.51,2
1.39,0.61,2
1.4,0.66,2
1.4,0.52,2
1.4,0.54,2
1.41,0.66,2
1.42,0.56,2
1.41,0.5,2
1.41,0.64,2
1.41,0.62,2
1.41,0.5,2
1.4,0.6,2
1.4,0.65,2
1.39,0.51,2
1.39,0.53,2
1.39,0.64,2
1.4,0.54,2
1.39,0.48,2
1.4,0.61,2
1.41,0.59,2
1.4,0.47,2
1.39,0.56,2
1.4,0.61,2
1.4,0.48,2
1.39,0.5,2
1.39,0.62,2
1.4,0.51,2
1.38,0.46,2
1.39,0.59,2
1.4,0.56,2
1.4,0.45,2
1.39,0.55,2
1.4,0.59,2
1.4,0.45,2
1.4,0.48,2
1.4,0.59,2
1.41,0.49,2
1.4,0.44,2
1.4,0.58,2
1.4,0.55,2
1.39,0.44,2
1.38,0.54,2
1.39,0.58,2
1.39,0.44,2
1.38,0.47,2
1.39,0.58,2
1.4,0.48,2
1.38,0.43,2
1.38,0.57,2
1.38,0.53,2
1.37,0.42,2
1.36,0.52,2
1.37,0.57,2
1.36,0.43,2
1.35,0.46,2
1.36,0.58,2
1.36,0.47,2
1.36,0.43,2
1.37,0.56,2
1.38,0.52,2
1.37,0.4,2
1.37,0.5,2
1.38,0.55,2
1.37,0.42,2
1.36,0.45,2
1.37,0.56,2
1.38,0.46,2
1.36,0.42,2
1.37,0.55,2
1.37,0.51,2
1.37,0.4,2
1.36,0.5,2
1.37,0.54,2
1.37,0.4,2
1.36,0.43,2
1.37,0.54,2
1.39,0.44,2
1.37,0.39,2
1.38,0.53,2
1.38,0.49,2
1.37,0.38,2
1.36,0.48,2
1.37,0.52,2
1.36,0.39,2
1.36,0.43,2
1.36,0.53,2
1.37,0.42,2
1.36,0.38,2
1.37,0.51,2
1.37,0.47,2
1.37,0.36,2
1.36,0.47,2
1.37,0.51,2
1.36,0.38,2
1.35,0.41,2
1.36,0.52,2
1.37,0.41,2
1.36,0.37,2
1.37,0.5,2
1.37,0.46,2
1.37,0.35,2
1.37,0.45,2
1.38,0.49,2
1.38,0.36,2
1.37,0.39,2
1.37,0.5,2
1.38,0.4,2
1.36,0.36,2
1.37,0.48,2
1.37,0.44,2
1.36,0.33,2
1.36,0.43,2
1.37,0.47,2
1.36,0.34,2
1.36,0.38,2
1.36,0.49,2
1.37,0.37,2
1.36,0.33,2
1.37,0.45,2
1.38,0.41,2
1.37,0.3,2
1.36,0.41,2
1.37,0.45,2
1.36,0.33,2
1.36,0.37,2
1.36,0.48,2
1.37,0.36,2
1.36,0.33,2
1.36,0.44,2
1.37,0.4,2
1.36,0.29,2
1.35,0.4,2
1.36,0.44,2
1.35,0.32,2
1.35,0.36,2
1.36,0.47,2
1.37,0.35,2
1.36,0.31,2
1.37,0.42,2
1.38,0.38,2
1.37,0.27,2
1.36,0.39,2
1.38,0.42,2
1.37,0.31,2
1.37,0.35,2
1.37,0.44,2
1.38,0.33,2
1.36,0.29,2
1.37,0.4,2
1.37,0.36,2
1.36,0.26,2
1.35,0.37,2
1.36,0.4,2
1.35,0.29,2
1.34,0.34,2
1.34,0.43,2
1.35,0.31,2
1.33,0.28,2
1.34,0.38,2
1.35,0.33,2
1.34,0.23,2
1.34,0.35,2
1.35,0.38,2
1.34,0.28,2
1.34,0.32,2
1.35,0.41,2
1.36,0.29,2
1.35,0.26,2
1.36,0.36,2
1.36,0.31,2
1.35,0.22,2
1.35,0.34,2
1.35,0.37,2
1.34,0.27,2
1.33,0.31,2
1.34,0.4,2
1.34,0.29,2
1.33,0.26,2
1.34,0.36,2
1.35,0.31,2
1.34,0.22,2
1.33,0.34,2
1.34,0.37,2
1.33,0.27,2
1.32,0.32,2
1.33,0.41,2
1.34,0.29,2
1.33,0.27,2
1.34,0.37,2
1.35,0.32,2
1.34,0.23,2
1.34,0.35,2
1.35,0.37,2
1.34,0.28,2
1.33,0.33,2
1.33,0.42,2
1.33,0.3,2
1.32,0.27,2
1.32,0.37,2
1.32,0.32,2
1.32,0.23,2
1.31,0.35,2
1.32,0.37,2
1.32,0.27,2
1.31,0.33,2
1.32,0.41,2
1.32,0.3,2
1.3,0.27,2
1.31,0.37,2
1.31,0.32,2
1.31,0.23,2
1.3,0.35,2
1.31,0.37,2
1.31,0.28,2
1.3,0.33,2
1.31,0.42,2
1.32,0.3,2
1.31,0.28,2
1.32,0.38,2
1.33,0.33,2
1.32,0.23,2
1.32,0.35,2
1.33,0.38,2
1.32,0.28,2
1.32,0.33,2
1.32,0.42,2
1.32,0.3,2
1.31,0.28,2
1.32,0.38,2
1.32,0.33,2
1.31,0.23,2
1.3,0.35,2
1.31,0.38,2
1.3,0.28,2
1.3,0.33,2
1.31,0.42,2
1.31,0.3,2
1.3,0.28,2
1.31,0.38,2
1.31,0.33,2
1.31,0.24,2
1.3,0.36,2
1.31,0.38,2
1.3,0.28,2
1.29,0.33,2
1.29,0.43,2
1.29,0.31,2
1.28,0.29,2
1.29,0.39,2
1.3,0.34,2
1.29,0.24,2
1.29,0.36,2
1.3,0.38,2
1.29,0.28,2
1.29,0.34,2
1.31,0.43,2
1.31,0.31,2
1.3,0.29,2
1.31,0.39,2
1.32,0.33,2
1.3,0.24,2
1.3,0.36,2
1.31,0.38,2
1.3,0.28,2
1.29,0.34,2
1.3,0.44,2
1.3,0.31,2
1.29,0.29,2
1.3,0.4,2
1.31,0.34,2
1.29,0.24,2
1.29,0.37,2
1.3,0.39,2
1.29,0.28,2
1.29,0.34,2
1.3,0.44,2
1.3,0.31,2
1.29,0.3,2
1.3,0.4,2
1.3,0.34,2
1.28,0.25,2
1.28,0.37,2
1.28,0.39,2
1.27,0.28,2
1.27,0.35,2
1.28,0.44,2
1.28,0.32,2
1.26,0.31,2
1.27,0.41,2
1.27,0.35,2
1.26,0.26,2
1.26,0.39,2
1.27,0.41,2
1.26,0.3,2
1.26,0.37,2
1.28,0.46,2
1.28,0.34,2
1.27,0.32,2
1.29,0.43,2
1.29,0.37,2
1.28,0.28,2
1.28,0.41,2
1.29,0.42,2
1.27,0.31,2
1.27,0.37,2
1.29,0.46,2
1.29,0.34,2
1.28,0.33,2
1.3,0.44,2
1.3,0.38,2
1.28,0.29,2
1.28,0.41,2
1.29,0.43,2
1.27,0.31,2
1.26,0.38,2
1.28,0.47,2
1.28,0.35,2
1.27,0.34,2
1.28,0.46,2
1.29,0.39,2
1.27,0.3,2
1.27,0.43,2
1.28,0.44,2
1.27,0.33,2
1.27,0.4,2
1.29,0.49,2
1.29,0.37,2
1.28,0.36,2
1.29,0.48,2
1.3,0.42,2
1.28,0.33,2
1.28,0.46,2
1.29,0.47,2
1.28,0.35,2
1.28,0.42,2
1.29,0.51,2
1.29,0.38,2
1.28,0.37,2
1.28,0.5,2
1.28,0.43,2
1.26,0.35,2
1.25,0.48,2
1.26,0.49,2
1.24,0.37,2
1.23,0.43,2
1.24,0.52,2
1.24,0.38,2
1.23,0.38,2
1.24,0.5,2
1.25,0.44,2
1.24,0.35,2
1.24,0.49,2
1.25,0.5,2
1.24,0.37,2
1.23,0.45,2
1.24,0.53,2
1.24,0.4,2
1.23,0.4,2
1.24,0.53,2
1.25,0.46,2
1.24,0.37,2
1.24,0.51,2
1.26,0.51,2
1.25,0.39,2
1.26,0.46,2
1.28,0.55,2
1.28,0.42,2
1.27,0.42,2
1.28,0.55,2
1.28,0.48,2
1.26,0.4,2
1.27,0.53,2
1.28,0.53,2
1.27,0.41,2
1.27,0.48,2
1.29,0.57,2
1.28,0.43,2
1.27,0.44,2
1.28,0.57,2
1.29,0.49,2
1.27,0.42,2
1.27,0.55,2
1.28,0.55,2
1.27,0.43,2
1.27,0.51,2
1.28,0.59,2
1.28,0.46,2
1.27,0.46,2
1.29,0.59,2
1.29,0.51,2
1.27,0.42,2
1.28,0.55,2
1.29,0.54,2
1.28,0.4,2
1.28,0.48,2
1.3,0.56,2
1.29,0.43,2
1.28,0.44,2
1.29,0.57,2
1.29,0.5,2
1.28,0.42,2
1.28,0.56,2
1.28,0.56,2
1.27,0.43,2
1.27,0.51,2
1.29,0.59,2
1.28,0.46,2
1.27,0.47,2
1.28,0.6,2
1.29,0.52,2
1.27,0.45,2
1.27,0.58,2
1.28,0.58,2
1.27,0.46,2
1.27,0.53,2
1.28,0.61,2
1.28,0.47,2
1.27,0.48,2
1.28,0.6,2
1.28,0.52,2
1.26,0.45,2
1.27,0.58,2
1.28,0.58,2
1.27,0.45,2
1.27,0.54,2
1.29,0.61,2
1.28,0.48,2
1.27,0.5,2
1.28,0.62,2
1.29,0.55,2
1.27,0.48,2
1.27,0.61,2
1.28,0.61,2
1.27,0.48,2
1.27,0.57,2
1.29,0.64,2
1.28,0.51,2
1.28,0.52,2
1.29,0.64,2
1.3,0.56,2
1.28,0.49,2
1.29,0.63,2
1.3,0.62,2
1.29,0.5,2
1.29,0.58,2
1.3,0.65,2
1.3,0.52,2
1.28,0.53,2
1.29,0.65,2
1.29,0.57,2
1.27,0.5,2
1.28,0.64,2
1.29,0.63,2
1.28,0.5,2
1.28,0.59,2
1.29,0.66,2
1.29,0.52,2
1.27,0.54,2
1.28,0.66,2
1.29,0.58,2
1.28,0.51,2
1.28,0.65,2
1.29,0.64,2
1.28,0.52,2
1.28,0.61,2
1.29,0.69,2
1.29,0.55,2
1.27,0.56,2
1.29,0.69,2
1.31,0.6,2
1.31,0.54,2
1.33,0.67,2
1.36,0.67,2
1.37,0.55,2
1.38,0.64,2
1.42,0.72,2
1.44,0.59,2
1.46,0.61,2
1.49,0.74,2
1.53,0.66,2
1.54,0.6,2
1.57,0.74,2
1.6,0.73,2
1.61,0.62,2
1.62,0.71,2
1.66,0.78,2
1.68,0.65,2
1.69,0.67,2
1.72,0.8,2
1.75,0.72,2
1.74,0.66,2
1.77,0.8,2
1.79,0.79,2
1.79,0.68,2
1.79,0.78,2
1.81,0.85,2
1.81,0.72,2
1.8,0.74,2
1.82,0.87,2
1.82,0.79,2
1.81,0.73,2
1.82,0.87,2
1.84,0.86,2
1.83,0.74,2
1.84,0.83,2
1.86,0.89,2
1.85,0.76,2
1.84,0.78,2
1.85,0.91,2
1.86,0.82,2
1.84,0.76,2
1.85,0.9,2
1.85,0.88,2
1.85,0.76,2
1.84,0.85,2
1.85,0.91,2
1.84,0.77,2
1.83,0.8,2
1.83,0.92,2
1.84,0.83,2
1.83,0.77,2
1.83,0.91,2
1.84,0.89,2
1.83,0.77,2
1.83,0.86,2
1.84,0.92,2
1.83,0.79,2
1.82,0.81,2
1.83,0.94,2
1.84,0.85,2
1.83,0.79,2
1.84,0.93,2
1.85,0.91,2
1.83,0.79,2
1.82,0.88,2
1.83,0.94,2
1.82,0.81,2
1.81,0.83,2
1.82,0.95,2
1.82,0.86,2
1.81,0.8,2
1.81,0.94,2
1.82,0.91,2
1.81,0.79,2
1.79,0.88,2
1.8,0.94,2
1.79,0.8,2
1.79,0.83,2
1.8,0.95,2
1.81,0.86,2
1.79,0.8,2
1.79,0.93,2
1.8,0.9,2
1.79,0.78,2
1.78,0.87,2
1.8,0.93,2
1.78,0.8,2
1.77,0.82,2
1.78,0.94,2
1.79,0.85,2
1.77,0.79,2
1.78,0.93,2
1.79,0.9,2
1.78,0.78,2
1.77,0.88,2
1.79,0.93,2
1.78,0.79,2
1.77,0.82,2
1.78,0.94,2
1.78,0.85,2
1.77,0.79,2
1.77,0.93,2
1.78,0.9,2
1.77,0.78,2
1.76,0.88,2
1.77,0.93,2
1.76,0.8,2
1.74,0.83,2
1.75,0.94,2
1.76,0.85,2
1.74,0.79,2
1.75,0.93,2
1.75,0.9,2
1.74,0.79,2
1.74,0.88,2
1.75,0.93,2
1.74,0.8,2
1.73,0.82,2
1.74,0.94,2
1.74,0.85,2
1.73,0.8,2
1.73,0.93,2
1.74,0.9,2
1.73,0.79,2
1.72,0.88,2
1.74,0.93,2
1.72,0.79,2
1.72,0.82,2
1.72,0.94,2
1.73,0.84,2
1.71,0.79,2
1.71,0.92,2
1.72,0.89,2
1.71,0.78,2
1.7,0.88,2
1.71,0.93,2
1.7,0.78,2
1.7,0.82,2
1.71,0.93,2
1.72,0.83,2
1.7,0.78,2
1.71,0.92,2
1.72,0.89,2
1.71,0.77,2
1.69,0.87,2
1.69,0.91,2
1.65,0.77,2
1.61,0.8,2
1.58,0.91,2
1.55,0.79,2
1.49,0.73,2
1.45,0.86,2
1.42,0.81,2
1.37,0.69,2
1.33,0.78,2
1.31,0.81,2
1.27,0.67,2
1.23,0.69,2
1.21,0.8,2
1.2,0.68,2
1.18,0.63,2
1.18,0.77,2
1.18,0.73,2
1.17,0.61,2
1.16,0.72,2
1.17,0.76,2
1.17,0.62,2
1.16,0.66,2
1.17,0.77,2
1.18,0.66,2
1.17,0.62,2
1.18,0.76,2
1.19,0.72,2
1.18,0.61,2
1.18,0.72,2
1.19,0.76,2
1.18,0.62,2
1.18,0.66,2
1.19,0.77,2
1.19,0.66,2
1.18,0.62,2
1.18,0.76,2
1.18,0.72,2
1.18,0.61,2
1.17,0.72,2
1.18,0.77,2
1.17,0.63,2
1.17,0.67,2
1.18,0.78,2
1.18,0.67,2
1.16,0.63,2
1.16,0.77,2
1.15,0.72,2
1.13,0.61,2
1.12,0.72,2
1.14,0.76,2
1.14,0.63,2
1.14,0.67,2
1.15,0.78,2
1.16,0.67,2
1.15,0.63,2
1.16,0.76,2
1.16,0.72,2
1.16,0.61,2
1.16,0.72,2
1.17,0.76,2
1.17,0.62,2
1.17,0.66,2
1.17,0.77,2
1.18,0.66,2
1.17,0.62,2
1.18,0.77,2
1.18,0.73,2
1.18,0.62,2
1.18,0.74,2
1.19,0.77,2
1.18,0.63,2
1.18,0.68,2
1.19,0.79,2
1.2,0.67,2
1.19,0.64,2
1.2,0.77,2
1.2,0.73,2
1.2,0.62,2
1.19,0.74,2
1.2,0.78,2
1.19,0.64,2
1.19,0.68,2
1.2,0.8,2
1.2,0.68,2
1.19,0.65,2
1.2,0.79,2
1.2,0.74,2
1.19,0.63,2
1.19,0.75,2
1.2,0.78,2
1.19,0.65,2
1.19,0.69,2
1.2,0.8,2
1.2,0.69,2
1.2,0.65,2
1.21,0.79,2
1.22,0.75,2
1.21,0.64,2
1.21,0.76,2
1.23,0.79,2
1.22,0.65,2
1.21,0.7,2
1.22,0.81,2
1.23,0.69,2
1.22,0.66,2
1.23,0.8,2
1.25,0.76,2
1.25,0.65,2
1.24,0.77,2
1.26,0.8,2
1.25,0.66,2
1.24,0.71,2
1.26,0.82,2
1.27,0.7,2
1.26,0.67,2
1.27,0.81,2
1.28,0.76,2
1.28,0.66,2
1.27,0.77,2
1.28,0.81,2
1.27,0.67,2
1.27,0.72,2
1.27,0.83,2
1.28,0.71,2
1.27,0.68,2
1.28,0.82,2
1.29,0.77,2
1.29,0.67,2
1.29,0.79,2
1.3,0.82,2
1.29,0.68,2
1.28,0.73,2
1.29,0.84,2
1.29,0.72,2
1.28,0.7,2
1.29,0.83,2
1.29,0.79,2
1.28,0.68,2
1.27,0.8,2
1.28,0.83,3
1.26,0.7,3
1.26,0.75,3
1.27,0.86,3
1.27,0.74,3
1.26,0.71,3
1.27,0.85,3
1.27,0.8,3
1.27,0.69,3
1.27,0.81,3
1.28,0.84,3
1.28,0.7,3
1.27,0.75,3
1.29,0.86,3
1.3,0.74,3
1.29,0.71,3
1.3,0.85,3
1.31,0.8,3
1.31,0.69,3
1.3,0.82,3
1.31,0.85,3
1.31,0.71,3
1.3,0.77,3
1.31,0.87,3
1.31,0.75,3
1.29,0.72,3
1.3,0.86,3
1.3,0.81,3
1.29,0.71,3
1.29,0.83,3
1.3,0.86,3
1.29,0.73,3
1.28,0.78,3
1.29,0.88,3
1.3,0.76,3
1.29,0.73,3
1.3,0.86,3
1.31,0.81,3
1.29,0.71,3
1.29,0.83,3
1.3,0.87,3
1.29,0.73,3
1.29,0.79,3
1.31,0.89,3
1.32,0.77,3
1.32,0.75,3
1.33,0.88,3
1.34,0.83,3
1.33,0.72,3
1.32,0.85,3
1.33,0.87,3
1.32,0.74,3
1.32,0.79,3
1.33,0.89,3
1.33,0.77,3
1.32,0.75,3
1.33,0.88,3
1.34,0.83,3
1.33,0.73,3
1.33,0.85,3
1.34,0.87,3
1.33,0.74,3
1.33,0.8,3
1.34,0.9,3
1.34,0.78,3
1.34,0.76,3
1.35,0.89,3
1.35,0.83,3
1.34,0.73,3
1.34,0.85,3
1.36,0.87,3
1.35,0.73,3
1.35,0.79,3
1.37,0.89,3
1.37,0.76,3
1.36,0.75,3
1.37,0.89,3
1.38,0.83,3
1.37,0.74,3
1.37,0.86,3
1.38,0.88,3
1.38,0.75,3
1.37,0.81,3
1.39,0.91,3
1.39,0.78,3
1.37,0.77,3
1.38,0.9,3
1.38,0.84,3
1.37,0.74,3
1.37,0.87,3
1.38,0.89,3
1.37,0.75,3
1.37,0.81,3
1.38,0.91,3
1.39,0.79,3
1.38,0.78,3
1.39,0.91,3
1.4,0.85,3
1.39,0.76,3
1.39,0.88,3
1.4,0.9,3
1.39,0.76,3
1.39,0.83,3
1.4,0.92,3
1.41,0.79,3
1.41,0.78,3
1.42,0.91,3
1.43,0.85,3
1.41,0.75,3
1.41,0.88,3
1.43,0.9,3
1.42,0.76,3
1.42,0.83,3
1.43,0.92,3
1.43,0.79,3
1.42,0.78,3
1.43,0.91,3
1.44,0.85,3
1.42,0.76,3
1.42,0.88,3
1.42,0.89,3
1.41,0.76,3
1.4,0.82,3
1.42,0.92,3
1.42,0.8,3
1.41,0.79,3
1.42,0.92,3
1.43,0.86,3
1.41,0.76,3
1.4,0.89,3
1.41,0.9,3
1.4,0.77,3
1.4,0.83,3
1.41,0.93,3
1.41,0.8,3
1.41,0.79,3
1.42,0.92,3
1.42,0.85,3
1.41,0.76,3
1.41,0.89,3
1.42,0.9,3
1.41,0.77,3
1.4,0.83,3
1.42,0.92,3
1.42,0.79,3
1.41,0.78,3
1.42,0.91,3
1.43,0.85,3
1.41,0.76,3
1.41,0.89,3
1.42,0.9,3
1.41,0.77,3
1.41,0.84,3
1.43,0.93,3
1.43,0.8,3
1.43,0.79,3
1.44,0.92,3
1.45,0.86,3
1.43,0.77,3
1.44,0.9,3
1.45,0.91,3
1.45,0.78,3
1.44,0.85,3
1.46,0.94,3
1.46,0.81,3
1.45,0.8,3
1.45,0.93,3
1.46,0.86,3
1.45,0.78,3
1.45,0.91,3
1.46,0.92,3
1.45,0.78,3
1.45,0.85,3
1.47,0.94,3
1.47,0.81,3
1.46,0.81,3
1.47,0.94,3
1.47,0.87,3
1.45,0.79,3
1.45,0.92,3
1.46,0.92,3
1.45,0.79,3
1.45,0.86,3
1.47,0.95,3
1.47,0.82,3
1.46,0.81,3
1.47,0.94,3
1.47,0.87,3
1.45,0.79,3
1.46,0.92,3
1.47,0.92,3
1.47,0.79,3
1.46,0.87,3
1.48,0.95,3
1.49,0.82,3
1.48,0.82,3
1.48,0.95,3
1.49,0.88,3
1.48,0.8,3
1.48,0.93,3
1.49,0.94,3
1.48,0.8,3
1.47,0.87,3
1.48,0.95,3
1.48,0.82,3
1.47,0.82,3
1.48,0.95,3
1.49,0.88,3
1.48,0.8,3
1.48,0.93,3
1.49,0.93,3
1.48,0.8,3
1.47,0.88,3
1.49,0.96,3
1.48,0.83,3
1.48,0.83,3
1.49,0.96,3
1.49,0.88,3
1.48,0.8,3
1.48,0.94,3
1.49,0.94,3
1.48,0.81,3
1.48,0.88,3
1.49,0.96,3
1.49,0.83,3
1.49,0.83,3
1.5,0.96,3
1.51,0.89,3
1.49,0.81,3
1.49,0.94,3
1.5,0.94,3
1.49,0.81,3
1.48,0.89,3
1.49,0.97,3
1.49,0.84,3
1.48,0.84,3
1.49,0.97,3
1.49,0.9,3
1.48,0.81,3
1.48,0.95,3
1.49,0.94,3
1.48,0.81,3
1.47,0.85,3
1.49,0.89,3
1.49,0.72,3
1.48,0.69,3
1.5,0.79,3
1.51,0.71,3
1.49,0.63,3
1.49,0.76,3
1.5,0.76,3
1.49,0.63,3
1.49,0.71,3
1.51,0.79,3
1.5,0.65,3
1.49,0.66,3
1.5,0.78,3
1.5,0.71,3
1.49,0.63,3
1.49,0.77,3
1.5,0.77,3
1.49,0.64,3
1.49,0.72,3
1.5,0.8,3
1.5,0.67,3
1.49,0.67,3
1.5,0.8,3
1.51,0.72,3
1.49,0.65,3
1.5,0.78,3
1.51,0.78,3
1.5,0.66,3
1.49,0.74,3
1.51,0.81,3
1.51,0.68,3
1.51,0.68,3
1.52,0.81,3
1.52,0.73,3
1.51,0.66,3
1.51,0.79,3
1.52,0.79,3
1.51,0.66,3
1.51,0.74,3
1.53,0.82,3
1.53,0.69,3
1.52,0.7,3
1.53,0.82,3
1.53,0.74,3
1.52,0.66,3
1.52,0.8,3
1.53,0.79,3
1.52,0.67,3
1.51,0.75,3
1.53,0.82,3
1.52,0.69,3
1.51,0.69,3
1.52,0.82,3
1.52,0.74,3
1.51,0.67,3
1.52,0.81,3
1.53,0.8,3
1.53,0.67,3
1.52,0.76,3
1.54,0.83,3
1.53,0.69,3
1.52,0.71,3
1.53,0.83,3
1.53,0.75,3
1.51,0.68,3
1.51,0.81,3
1.52,0.81,3
1.51,0.68,3
1.51,0.77,3
1.52,0.84,3
1.52,0.7,3
1.52,0.7,3
1.53,0.82,3
1.54,0.74,3
1.52,0.67,3
1.52,0.8,3
1.53,0.8,3
1.52,0.68,3
1.51,0.76,3
1.53,0.84,3
1.52,0.7,3
1.51,0.72,3
1.52,0.84,3
1.53,0.76,3
1.51,0.69,3
1.51,0.82,3
1.52,0.81,3
1.51,0.69,3
1.5,0.77,3
1.51,0.84,3
1.51,0.71,3
1.5,0.72,3
1.51,0.84,3
1.52,0.77,3
1.51,0.7,3
1.51,0.84,3
1.52,0.83,3
1.51,0.71,3
1.5,0.79,3
1.51,0.86,3
1.51,0.72,3
1.5,0.73,3
1.52,0.86,3
1.53,0.77,3
1.51,0.7,3
1.52,0.83,3
1.53,0.82,3
1.53,0.69,3
1.52,0.78,3
1.53,0.84,3
1.52,0.7,3
1.51,0.72,3
1.52,0.84,3
1.53,0.76,3
1.52,0.69,3
1.52,0.83,3
1.53,0.81,3
1.52,0.69,3
1.51,0.78,3
1.53,0.85,3
1.52,0.71,3
1.51,0.73,3
1.52,0.86,3
1.52,0.77,3
1.51,0.71,3
1.51,0.84,3
1.52,0.83,3
1.51,0.7,3
1.5,0.79,3
1.52,0.85,3
1.51,0.72,3
1.49,0.73,3
1.5,0.86,3
1.51,0.77,3
1.49,0.7,3
1.5,0.84,3
1.51,0.82,3
1.5,0.7,3
1.49,0.79,3
1.5,0.86,3
1.5,0.72,3
1.49,0.74,3
1.5,0.87,3
1.51,0.78,3
1.5,0.71,3
1.5,0.85,3
1.51,0.84,3
1.5,0.71,3
1.49,0.81,3
1.51,0.87,3
1.5,0.73,3
1.49,0.75,3
1.5,0.88,3
1.51,0.8,3
1.5,0.73,3
1.51,0.88,3
1.52,0.86,3
1.52,0.73,3
1.51,0.82,3
1.53,0.88,3
1.53,0.74,3
1.52,0.76,3
1.53,0.89,3
1.54,0.8,3
1.52,0.74,3
1.53,0.87,3
1.54,0.85,3
1.53,0.73,3
1.52,0.82,3
1.53,0.88,3
1.52,0.75,3
1.51,0.76,3
1.52,0.89,3
1.53,0.8,3
1.52,0.74,3
1.53,0.87,3
1.55,0.85,3
1.54,0.73,3
1.53,0.82,3
1.55,0.88,3
1.54,0.74,3
1.53,0.77,3
1.54,0.89,3
1.55,0.81,3
1.54,0.74,3
1.55,0.88,3
1.56,0.86,3
1.55,0.74,3
1.54,0.83,3
1.55,0.89,3
1.55,0.75,3
1.54,0.77,3
1.54,0.9,3
1.55,0.81,3
1.54,0.75,3
1.55,0.89,3
1.56,0.87,3
1.56,0.75,3
1.55,0.84,3
1.56,0.9,3
1.56,0.76,3
1.55,0.78,3
1.56,0.9,3
1.57,0.81,3
1.55,0.75,3
1.56,0.89,3
1.57,0.87,3
1.56,0.75,3
1.56,0.84,3
1.57,0.89,3
1.57,0.75,3
1.56,0.78,3
1.57,0.9,3
1.58,0.81,3
1.57,0.75,3
1.57,0.89,3
1.58,0.86,3
1.58,0.74,3
1.57,0.84,3
1.58,0.9,3
1.58,0.76,3
1.57,0.78,3
1.57,0.91,3
1.58,0.82,3
1.57,0.76,3
1.58,0.9,3
1.59,0.88,3
1.58,0.77,3
1.57,0.85,3
1.58,0.91,3
1.58,0.77,3
1.57,0.8,3
1.58,0.92,3
1.59,0.83,3
1.57,0.78,3
1.57,0.91,3
1.58,0.89,3
1.57,0.77,3
1.56,0.86,3
1.58,0.91,3
1.58,0.77,3
1.57,0.8,3
1.58,0.92,3
1.59,0.83,3
1.58,0.78,3
1.58,0.92,3
1.59,0.89,3
1.58,0.77,3
1.57,0.86,3
1.58,0.91,3
1.58,0.78,3
1.58,0.8,3
1.59,0.92,3
1.6,0.84,3
1.59,0.78,3
1.6,0.92,3
1.61,0.9,3
1.61,0.78,3
1.6,0.86,3
1.62,0.91,3
1.61,0.77,3
1.61,0.8,3
1.62,0.92,3
1.63,0.82,3
1.61,0.77,3
1.62,0.91,3
1.63,0.88,3
1.62,0.76,3
1.61,0.86,3
1.63,0.91,3
1.63,0.77,3
1.64,0.81,3
1.67,0.93,3
1.69,0.84,3
1.7,0.8,3
1.73,0.94,3
1.76,0.92,3
1.78,0.81,3
1.79,0.91,3
1.83,0.96,3
1.85,0.83,3
1.87,0.86,3
1.9,0.98,3
1.92,0.88,3
1.93,0.83,3
1.93,0.96,3
1.95,0.93,3
1.95,0.82,3
1.95,0.92,3
1.96,0.98,3
1.96,0.85,3
1.96,0.89,3
1.96,1.01,3
1.96,0.92,3
1.96,0.87,3
1.96,1.01,3
1.96,0.99,3
1.96,0.87,3
1.96,0.99,3
1.96,1.04,3
1.96,0.91,3
1.96,0.95,3
1.96,1.07,3
1.96,0.97,3
1.96,0.92,3
1.96,1.06,3
1.96,1.03,3
1.96,0.92,3
1.96,1.03,3
1.96,1.08,3
1.96,0.94,3
1.96,0.97,3
1.96,1.09,3
1.96,0.99,3
1.96,0.94,3
1.96,1.08,3
1.96,1.04,3
1.96,0.93,3
1.96,1.03,3
1.96,1.08,3
1.96,0.94,3
1.96,0.97,3
1.96,1.08,3
1.96,0.97,3
1.96,0.93,3
1.96,1.07,3
1.96,1.04,3
1.96,0.92,3
1.96,1.03,3
1.96,1.07,3
1.96,0.93,3
1.96,0.97,3
1.96,1.08,3
1.96,0.98,3
1.96,0.93,3
1.96,1.07,3
1.96,1.04,3
1.96,0.92,3
1.96,1.02,3
1.96,1.06,3
1.96,0.92,3
1.96,0.96,3
1.96,1.07,3
1.96,0.97,3
1.96,0.92,3
1.96,1.06,3
1.96,1.03,3
1.96,0.91,3
1.96,1.02,3
1.96,1.07,3
1.96,0.93,3
1.96,0.96,3
1.96,1.08,3
1.96,0.97,3
1.96,0.92,3
1.96,1.06,3
1.96,1.02,3
1.96,0.91,3
1.96,1.02,3
1.96,1.06,3
1.96,0.92,3
1.96,0.96,3
1.96,1.08,3
1.96,0.97,3
1.96,0.93,3
1.96,1.07,3
1.96,1.03,3
1.96,0.92,3
1.96,1.02,3
1.96,1.07,3
1.96,0.93,3
1.96,0.97,3
1.96,1.08,3
1.96,0.97,3
1.96,0.93,3
1.95,1.07,3
1.96,1.03,3
1.96,0.92,3
1.96,1.03,3
1.96,1.07,3
1.96,0.93,3
1.96,0.97,3
1.96,1.09,3
1.96,0.98,3
1.95,0.94,3
1.95,1.08,3
1.95,1.04,3
1.95,0.92,3
1.95,1.03,3
1.96,1.07,3
1.96,0.93,3
1.96,0.97,3
1.96,1.09,3
1.96,0.98,3
1.94,0.94,3
1.94,1.08,3
1.95,1.04,3
1.94,0.92,3
1.94,1.03,3
1.95,1.07,3
1.95,0.93,3
1.94,0.97,3
1.95,1.09,3
1.95,0.97,3
1.93,0.93,3
1.94,1.07,3
1.94,1.03,3
1.93,0.91,3
1.93,1.03,3
1.94,1.07,3
1.94,0.93,3
1.93,0.97,3
1.94,1.09,3
1.94,0.97,3
1.93,0.93,3
1.93,1.07,3
1.92,1.02,3
1.89,0.91,3
1.88,1.02,3
1.85,1.05,3
1.8,0.9,3
1.76,0.94,3
1.72,1.04,3
1.69,0.92,3
1.63,0.87,3
1.59,1.0,3
1.56,0.96,3
1.51,0.84,3
1.47,0.94,3
1.45,0.97,3
1.41,0.83,3
1.39,0.86,3
1.38,0.97,3
1.37,0.85,3
1.35,0.8,3
1.35,0.93,3
1.35,0.89,3
1.34,0.78,3
1.34,0.89,3
1.35,0.94,3
1.34,0.8,3
1.33,0.84,3
1.34,0.95,3
1.34,0.83,3
1.33,0.79,3
1.34,0.93,3
1.35,0.88,3
1.34,0.77,3
1.34,0.88,3
1.35,0.92,3
1.34,0.78,3
1.34,0.83,3
1.35,0.94,3
1.36,0.83,3
1.34,0.79,3
1.35,0.93,3
1.36,0.88,3
1.35,0.77,3
1.35,0.89,3
1.36,0.93,3
1.35,0.79,3
1.35,0.83,3
1.35,0.94,3
1.36,0.83,3
1.35,0.78,3
1.36,0.92,3
1.37,0.88,3
1.36,0.77,3
1.36,0.88,3
1.37,0.93,3
1.36,0.79,3
1.36,0.84,3
1.36,0.94,3
1.37,0.82,3
1.36,0.78,3
1.36,0.92,3
1.37,0.87,3
1.36,0.76,3
1.35,0.88,3
1.37,0.92,3
1.36,0.78,3
1.36,0.83,3
1.37,0.93,3
1.37,0.81,3
1.36,0.77,3
1.36,0.91,3
1.37,0.86,3
1.36,0.75,3
1.35,0.87,3
1.36,0.92,3
1.36,0.78,3
1.36,0.83,3
1.37,0.94,3
1.38,0.82,3
1.37,0.79,3
1.38,0.92,3
1.38,0.88,3
1.38,0.77,3
1.37,0.88,3
1.39,0.91,3
1.38,0.78,3
1.37,0.82,3
1.38,0.93,3
1.39,0.81,3
1.38,0.77,3
1.39,0.91,3
1.4,0.86,3
1.39,0.76,3
1.38,0.88,3
1.39,0.92,3
1.38,0.78,3
1.37,0.83,3
1.38,0.93,3
1.39,0.81,3
1.38,0.78,3
1.39,0.92,3
1.39,0.88,3
1.39,0.77,3
1.38,0.89,3
1.39,0.92,3
1.39,0.79,3
1.38,0.83,3
1.39,0.94,3
1.4,0.82,3
1.39,0.79,3
1.4,0.93,3
1.41,0.88,3
1.4,0.77,3
1.39,0.89,3
1.4,0.92,3
1.39,0.78,3
1.39,0.83,3
1.4,0.94,3
1.41,0.82,3
1.4,0.79,3
1.42,0.92,3
1.42,0.88,3
1.41,0.77,3
1.41,0.89,3
1.42,0.92,3
1.41,0.79,3
1.41,0.84,3
1.42,0.95,3
1.42,0.83,3
1.41,0.8,3
1.42,0.94,3
1.43,0.89,3
1.42,0.78,3
1.42,0.9,3
1.43,0.93,3
1.42,0.79,3
1.41,0.84,3
1.42,0.95,3
1.42,0.83,3
1.41,0.8,3
1.42,0.94,3
1.42,0.89,3
1.42,0.79,3
1.41,0.91,4
1.42,0.94,4
1.42,0.8,4
1.41,0.85,4
1.42,0.96,4
1.42,0.84,4
1.41,0.81,4
1.42,0.95,4
1.42,0.89,4
1.41,0.79,4
1.41,0.91,4
1.42,0.94,4
1.41,0.8,4
1.4,0.86,4
1.41,0.96,4
1.42,0.83,4
1.41,0.81,4
1.41,0.94,4
1.42,0.89,4
1.41,0.78,4
1.4,0.9,4
1.41,0.92,4
1.41,0.79,4
1.4,0.84,4
1.41,0.94,4
1.41,0.82,4
1.4,0.79,4
1.4,0.93,4
1.41,0.87,4
1.4,0.77,4
1.39,0.89,4
1.41,0.91,4
1.4,0.78,4
1.4,0.83,4
1.41,0.93,4
1.42,0.81,4
1.41,0.79,4
1.42,0.92,4
1.43,0.87,4
1.42,0.77,4
1.42,0.89,4
1.44,0.91,4
1.43,0.78,4
1.42,0.83,4
1.43,0.93,4
1.43,0.81,4
1.42,0.79,4
1.43,0.93,4
1.44,0.87,4
1.43,0.77,4
1.42,0.9,4
1.43,0.92,4
1.43,0.78,4
1.42,0.84,4
1.43,0.94,4
1.43,0.82,4
1.42,0.8,4
1.43,0.93,4
1.43,0.88,4
1.42,0.77,4
1.41,0.89,4
1.43,0.92,4
1.42,0.78,4
1.42,0.83,4
1.43,0.93,4
1.44,0.81,4
1.42,0.78,4
1.43,0.91,4
1.43,0.86,4
1.41,0.76,4
1.4,0.88,4
1.41,0.9,4
1.41,0.76,4
1.4,0.82,4
1.42,0.92,4
1.42,0.8,4
1.41,0.78,4
1.42,0.91,4
1.42,0.85,4
1.41,0.75,4
1.41,0.88,4
1.42,0.89,4
1.42,0.76,4
1.41,0.82,4
1.43,0.92,4
1.43,0.8,4
1.42,0.78,4
1.43,0.91,4
1.43,0.85,4
1.42,0.75,4
1.42,0.88,4
1.42,0.9,4
1.42,0.77,4
1.41,0.83,4
1.43,0.93,4
1.43,0.8,4
1.42,0.79,4
1.43,0.92,4
1.44,0.86,4
1.43,0.76,4
1.42,0.88,4
1.43,0.89,4
1.42,0.75,4
1.41,0.81,4
1.43,0.91,4
1.43,0.79,4
1.42,0.77,4
1.43,0.91,4
1.44,0.85,4
1.43,0.75,4
1.42,0.87,4
1.43,0.89,4
1.42,0.75,4
1.41,0.81,4
1.42,0.9,4
1.42,0.78,4
1.41,0.76,4
1.42,0.89,4
1.43,0.83,4
1.42,0.73,4
1.42,0.85,4
1.43,0.87,4
1.42,0.73,4
1.41,0.79,4
1.43,0.89,4
1.44,0.76,4
1.43,0.74,4
1.44,0.87,4
1.45,0.81,4
1.43,0.72,4
1.43,0.84,4
1.44,0.86,4
1.43,0.72,4
1.43,0.78,4
1.45,0.88,4
1.45,0.75,4
1.44,0.74,4
1.45,0.87,4
1.46,0.81,4
1.44,0.72,4
1.44,0.84,4
1.45,0.85,4
1.45,0.72,4
1.44,0.78,4
1.46,0.88,4
1.47,0.75,4
1.46,0.74,4
1.47,0.87,4
1.48,0.81,4
1.46,0.71,4
1.45,0.84,4
1.46,0.86,4
1.45,0.72,4
1.45,0.79,4
1.46,0.88,4
1.47,0.76,4
1.46,0.75,4
1.47,0.88,4
1.47,0.82,4
1.46,0.72,4
1.46,0.85,4
1.47,0.87,4
1.46,0.73,4
1.45,0.8,4
1.46,0.89,4
1.46,0.77,4
1.45,0.75,4
1.45,0.89,4
1.46,0.82,4
1.44,0.73,4
1.44,0.85,4
1.45,0.87,4
1.44,0.73,4
1.43,0.8,4
1.44,0.89,4
1.45,0.76,4
1.44,0.75,4
1.45,0.88,4
1.45,0.82,4
1.44,0.72,4
1.44,0.85,4
1.45,0.86,4
1.44,0.72,4
1.44,0.79,4
1.45,0.88,4
1.46,0.75,4
1.45,0.73,4
1.46,0.87,4
1.46,0.8,4
1.45,0.7,4
1.45,0.83,4
1.46,0.84,4
1.45,0.7,4
1.44,0.77,4
1.46,0.86,4
1.46,0.73,4
1.44,0.72,4
1.45,0.86,4
1.46,0.79,4
1.45,0.7,4
1.45,0.83,4
1.46,0.84,4
1.45,0.7,4
1.44,0.77,4
1.45,0.86,4
1.45,0.73,4
1.44,0.72,4
1.45,0.86,4
1.46,0.79,4
1.44,0.7,4
1.44,0.83,4
1.45,0.84,4
1.44,0.71,4
1.43,0.78,4
1.45,0.87,4
1.46,0.74,4
1.45,0.73,4
1.46,0.86,4
1.46,0.8,4
1.44,0.71,4
1.44,0.84,4
1.45,0.85,4
1.45,0.72,4
1.44,0.78,4
1.45,0.87,4
1.45,0.74,4
1.45,0.73,4
1.45,0.86,4
1.46,0.8,4
1.45,0.7,4
1.45,0.83,4
1.46,0.84,4
1.45,0.71,4
1.45,0.77,4
1.47,0.87,4
1.47,0.74,4
1.46,0.73,4
1.47,0.86,4
1.47,0.79,4
1.46,0.7,4
1.46,0.82,4
1.47,0.83,4
1.46,0.7,4
1.46,0.77,4
1.48,0.85,4
1.48,0.72,4
1.47,0.71,4
1.47,0.84,4
1.48,0.78,4
1.46,0.69,4
1.46,0.81,4
1.47,0.82,4
1.46,0.69,4
1.45,0.76,4
1.47,0.85,4
1.47,0.71,4
1.46,0.71,4
1.47,0.84,4
1.48,0.77,4
1.46,0.68,4
1.46,0.82,4
1.47,0.82,4
1.46,0.69,4
1.45,0.76,4
1.47,0.85,4
1.47,0.71,4
1.46,0.7,4
1.47,0.83,4
1.47,0.76,4
1.46,0.68,4
1.46,0.81,4
1.47,0.82,4
1.46,0.69,4
1.46,0.76,4
1.47,0.85,4
1.47,0.72,4
1.46,0.71,4
1.47,0.84,4
1.48,0.77,4
1.46,0.68,4
1.46,0.81,4
1.47,0.82,4
1.46,0.69,4
1.46,0.76,4
1.47,0.85,4
1.47,0.72,4
1.46,0.72,4
1.47,0.85,4
1.48,0.78,4
1.46,0.69,4
1.46,0.82,4
1.47,0.82,4
1.47,0.69,4
1.46,0.76,4
1.48,0.84,4
1.49,0.71,4
1.48,0.71,4
1.48,0.83,4
1.49,0.76,4
1.48,0.68,4
1.47,0.81,4
1.49,0.81,4
1.48,0.68,4
1.48,0.75,4
1.49,0.83,4
1.49,0.69,4
1.48,0.69,4
1.48,0.82,4
1.49,0.75,4
1.47,0.67,4
1.47,0.8,4
1.48,0.81,4
1.47,0.68,4
1.46,0.75,4
1.48,0.84,4
1.48,0.71,4
1.47,0.7,4
1.48,0.83,4
1.49,0.76,4
1.47,0.68,4
1.47,0.81,4
1.48,0.82,4
1.48,0.69,4
1.47,0.76,4
1.49,0.84,4
1.49,0.71,4
1.48,0.71,4
1.48,0.84,4
1.49,0.76,4
1.47,0.68,4
1.47,0.81,4
1.48,0.82,4
1.47,0.69,4
1.46,0.75,4
1.47,0.84,4
1.47,0.7,4
1.46,0.7,4
1.47,0.83,4
1.48,0.76,4
1.47,0.68,4
1.47,0.81,4
1.48,0.81,4
1.48,0.68,4
1.47,0.74,4
1.49,0.83,4
1.49,0.7,4
1.48,0.7,4
1.49,0.83,4
1.49,0.76,4
1.47,0.67,4
1.47,0.81,4
1.48,0.81,4
1.47,0.68,4
1.46,0.75,4
1.48,0.83,4
1.48,0.7,4
1.47,0.7,4
1.48,0.83,4
1.49,0.76,4
1.47,0.68,4
1.47,0.81,4
1.49,0.81,4
1.48,0.68,4
1.47,0.75,4
1.49,0.83,4
1.49,0.7,4
1.47,0.7,4
1.48,0.83,4
1.49,0.76,4
1.47,0.67,4
1.47,0.81,4
1.48,0.81,4
1.47,0.68,4
1.46,0.75,4
1.48,0.84,4
1.48,0.7,4
1.47,0.71,4
1.48,0.83,4
1.49,0.76,4
1.47,0.68,4
1.47,0.82,4
1.48,0.82,4
1.47,0.69,4
1.46,0.76,4
1.48,0.84,4
1.48,0.71,4
1.47,0.71,4
1.48,0.84,4
1.49,0.76,4
1.47,0.69,4
1.47,0.82,4
1.49,0.82,4
1.48,0.69,4
1.47,0.76,4
1.5,0.84,4
1.49,0.71,4
1.48,0.71,4
1.49,0.84,4
1.5,0.77,4
1.48,0.69,4
1.48,0.82,4
1.5,0.82,4
1.49,0.69,4
1.48,0.76,4
1.5,0.85,4
1.5,0.71,4
1.49,0.72,4
1.5,0.84,4
1.51,0.77,4
1.49,0.69,4
1.5,0.82,4
1.51,0.82,4
1.5,0.69,4
1.5,0.77,4
1.51,0.84,4
1.52,0.71,4
1.51,0.72,4
1.52,0.84,4
1.52,0.77,4
1.5,0.69,4
1.51,0.83,4
1.52,0.82,4
1.51,0.69,4
1.5,0.76,4
1.52,0.84,4
1.51,0.71,4
1.5,0.71,4
1.51,0.83,4
1.52,0.76,4
1.5,0.69,4
1.5,0.82,4
1.51,0.82,4
1.5,0.69,4
1.49,0.76,4
1.51,0.83,4
1.51,0.7,4
1.5,0.7,4
1.5,0.83,4
1.51,0.76,4
1.5,0.68,4
1.5,0.81,4
1.51,0.8,4
1.5,0.68,4
1.49,0.75,4
1.51,0.83,4
1.51,0.7,4
1.5,0.7,4
1.52,0.83,4
1.53,0.76,4
1.51,0.69,4
1.51,0.82,4
1.52,0.82,4
1.51,0.69,4
1.5,0.76,4
1.51,0.83,4
1.52,0.7,4
1.51,0.7,4
1.52,0.83,4
1.54,0.76,4
1.55,0.69,4
1.57,0.83,4
1.6,0.83,4
1.61,0.71,4
1.63,0.78,4
1.67,0.87,4
1.69,0.74,4
1.7,0.75,4
1.73,0.88,4
1.76,0.81,4
1.76,0.74,4
1.78,0.88,4
1.81,0.88,4
1.82,0.76,4
1.83,0.85,4
1.86,0.93,4
1.87,0.8,4
1.87,0.82,4
1.89,0.95,4
1.91,0.88,4
1.9,0.81,4
1.91,0.95,4
1.92,0.95,4
1.92,0.82,4
1.92,0.91,4
1.95,0.99,4
1.95,0.86,4
1.94,0.87,4
1.95,1.0,4
1.95,0.92,4
1.94,0.84,4
1.94,0.98,4
1.95,0.97,4
1.94,0.85,4
1.94,0.93,4
1.95,1.0,4
1.95,0.87,4
1.94,0.87,4
1.94,1.0,4
1.94,0.92,4
1.92,0.84,4
1.92,0.98,4
1.93,0.97,4
1.93,0.85,4
1.92,0.93,4
1.94,1.0,4
1.94,0.87,4
1.92,0.87,4
1.93,1.0,4
1.93,0.92,4
1.91,0.84,4
1.91,0.98,4
1.92,0.97,4
1.91,0.85,4
1.91,0.93,4
1.93,1.0,4
1.93,0.87,4
1.92,0.87,4
1.93,0.99,4
1.93,0.9,4
1.91,0.83,4
1.91,0.96,4
1.92,0.96,4
1.91,0.83,4
1.9,0.92,4
1.92,0.99,4
1.92,0.86,4
1.9,0.87,4
1.9,1.0,4
1.91,0.92,4
1.88,0.84,4
1.89,0.97,4
1.9,0.96,4
1.89,0.83,4
1.88,0.91,4
1.9,0.98,4
1.9,0.85,4
1.88,0.86,4
1.89,0.98,4
1.9,0.9,4
1.88,0.83,4
1.89,0.96,4
1.89,0.95,4
1.88,0.83,4
1.87,0.91,4
1.89,0.98,4
1.88,0.84,4
1.86,0.85,4
1.87,0.97,4
1.87,0.89,4
1.85,0.82,4
1.86,0.96,4
1.87,0.95,4
1.86,0.82,4
1.85,0.91,4
1.87,0.98,4
1.87,0.84,4
1.85,0.85,4
1.86,0.98,4
1.86,0.89,4
1.84,0.82,4
1.84,0.95,4
1.85,0.94,4
1.84,0.82,4
1.83,0.9,4
1.85,0.97,4
1.84,0.83,4
1.83,0.84,4
1.83,0.97,4
1.84,0.88,4
1.82,0.81,4
1.82,0.94,4
1.83,0.93,4
1.82,0.81,4
1.82,0.89,4
1.83,0.96,4
1.83,0.83,4
1.82,0.84,4
1.83,0.96,4
1.83,0.88,4
1.81,0.81,4
1.81,0.94,4
1.83,0.93,4
1.81,0.81,4
1.8,0.89,4
1.81,0.96,4
1.8,0.82,4
1.78,0.83,4
1.79,0.96,4
1.8,0.87,4
1.78,0.8,4
1.79,0.94,4
1.8,0.93,4
1.79,0.8,4
1.78,0.89,4
1.8,0.95,4
1.8,0.82,4
1.78,0.83,4
1.79,0.95,4
1.8,0.87,4
1.79,0.8,4
1.8,0.93,4
1.81,0.92,4
1.79,0.79,4
1.76,0.87,4
1.74,0.93,4
1.69,0.79,4
1.64,0.79,4
1.6,0.91,4
1.57,0.82,4
1.51,0.74,4
1.47,0.87,4
1.44,0.84,4
1.4,0.71,4
1.35,0.78,4
1.33,0.84,4
1.3,0.7,4
1.26,0.7,4
1.25,0.82,4
1.25,0.73,4
1.22,0.66,4
1.22,0.8,4
1.23,0.78,4
1.23,0.66,4
1.22,0.74,4
1.24,0.81,4
1.23,0.67,4
1.22,0.68,4
1.23,0.8,4
1.24,0.71,4
1.22,0.64,4
1.23,0.78,4
1.24,0.77,4
1.23,0.64,4
1.22,0.73,4
1.23,0.79,4
1.23,0.66,4
1.22,0.67,4
1.22,0.8,4
1.23,0.71,4
1.22,0.65,4
1.22,0.78,4
1.23,0.77,4
1.22,0.64,4
1.22,0.73,4
1.24,0.8,4
1.24,0.66,4
1.23,0.68,4
1.24,0.8,4
1.25,0.71,4
1.24,0.65,4
1.24,0.78,4
1.25,0.76,4
1.24,0.64,4
1.23,0.73,4
1.25,0.79,4
1.25,0.66,4
1.24,0.67,4
1.25,0.79,4
1.27,0.71,4
1.25,0.64,4
1.25,0.78,4
1.27,0.76,4
1.26,0.63,4
1.25,0.72,4
1.27,0.78,4
1.27,0.65,4
1.25,0.66,4
1.26,0.79,4
1.26,0.7,4
1.25,0.63,4
1.25,0.77,4
1.26,0.75,4
1.25,0.63,4
1.24,0.71,4
1.26,0.78,4
1.26,0.64,4
1.24,0.66,4
1.25,0.78,4
1.27,0.7,4
1.25,0.63,4
1.25,0.77,4
1.26,0.75,4
1.25,0.63,4
1.24,0.71,4
1.25,0.78,4
1.24,0.64,4
1.23,0.66,4
1.23,0.78,4
1.25,0.69,4
1.24,0.63,4
1.24,0.76,4
1.26,0.74,4
1.25,0.62,4
1.24,0.7,4
1.26,0.76,4
1.25,0.62,4
1.24,0.64,4
1.24,0.77,4
1.25,0.68,4
1.24,0.62,4
1.25,0.75,4
1.26,0.73,4
1.26,0.61,4
1.25,0.7,4
1.27,0.76,4
1.26,0.63,4
1.25,0.65,4
1.26,0.77,4
1.27,0.68,4
1.25,0.62,4
1.26,0.76,4
1.27,0.74,4
1.25,0.62,4
1.24,0.71,4
1.26,0.77,4
1.25,0.63,4
1.24,0.65,4
1.24,0.77,4
1.25,0.68,4
1.24,0.62,4
1.24,0.76,4
1.26,0.74,4
1.25,0.62,4
1.24,0.71,4
1.26,0.77,4
1.25,0.63,4
1.25,0.65,4
1.26,0.77,4
1.27,0.68,4
1.25,0.63,4
1.26,0.76,4
1.27,0.74,4
1.27,0.62,4
1.26,0.71,4
1.28,0.77,4
1.28,0.64,4
1.27,0.66,4
1.28,0.78,4
1.29,0.69,4
1.27,0.62,4
1.28,0.75,4
1.29,0.73,4
1.29,0.61,4
1.28,0.7,4
1.3,0.77,4
1.3,0.63,4
1.29,0.66,4
1.29,0.78,4
1.31,0.68,4
1.29,0.62,4
1.3,0.76,4
1.31,0.74,4
1.31,0.62,4
1.31,0.71,4
1.32,0.78,4
1.32,0.64,4
1.31,0.66,4
1.32,0.78,4
1.33,0.69,4
1.31,0.62,4
1.32,0.76,4
1.33,0.74,5
1.32,0.62,5
1.31,0.72,5
1.33,0.78,5
1.32,0.64,5
1.31,0.66,5
1.32,0.78,5
1.33,0.69,5
1.32,0.63,5
1.32,0.76,5
1.33,0.73,5
1.33,0.61,5
1.32,0.71,5
1.34,0.76,5
1.34,0.63,5
1.33,0.66,5
1.34,0.78,5
1.35,0.69,5
1.33,0.63,5
1.34,0.77,5
1.34,0.75,5
1.34,0.63,5
1.33,0.73,5
1.35,0.79,5
1.35,0.65,5
1.34,0.68,5
1.35,0.79,5
1.36,0.7,5
1.35,0.64,5
1.35,0.78,5
1.37,0.75,5
1.37,0.63,5
1.35,0.73,5
1.37,0.78,5
1.37,0.65,5
1.35,0.67,5
1.36,0.8,5
1.37,0.7,5
1.35,0.65,5
1.36,0.79,5
1.37,0.77,5
1.36,0.65,5
1.35,0.74,5
1.36,0.79,5
1.36,0.65,5
1.35,0.68,5
1.36,0.8,5
1.38,0.7,5
1.36,0.64,5
1.37,0.78,5
1.38,0.76,5
1.37,0.64,5
1.36,0.74,5
1.38,0.79,5
1.37,0.66,5
1.36,0.68,5
1.37,0.8,5
1.38,0.7,5
1.36,0.64,5
1.37,0.78,5
1.38,0.76,5
1.37,0.64,5
1.36,0.74,5
1.37,0.79,5
1.36,0.66,5
1.35,0.68,5
1.36,0.8,5
1.37,0.7,5
1.36,0.65,5
1.37,0.78,5
1.38,0.76,5
1.37,0.64,5
1.36,0.73,5
1.38,0.79,5
1.37,0.65,5
1.36,0.67,5
1.37,0.79,5
1.38,0.69,5
1.37,0.64,5
1.37,0.77,5
1.39,0.75,5
1.38,0.63,5
1.38,0.73,5
1.4,0.78,5
1.4,0.64,5
1.39,0.66,5
1.39,0.78,5
1.41,0.69,5
1.39,0.63,5
1.39,0.77,5
1.39,0.74,5
1.38,0.62,5
1.37,0.72,5
1.39,0.77,5
1.38,0.64,5
1.37,0.66,5
1.38,0.78,5
1.39,0.68,5
1.37,0.62,5
1.38,0.76,5
1.39,0.73,5
1.39,0.61,5
1.38,0.71,5
1.39,0.76,5
1.39,0.62,5
1.38,0.65,5
1.39,0.76,5
1.4,0.66,5
1.39,0.61,5
1.4,0.74,5
1.41,0.72,5
1.4,0.6,5
1.39,0.7,5
1.41,0.75,5
1.4,0.62,5
1.39,0.65,5
1.4,0.77,5
1.41,0.67,5
1.4,0.62,5
1.4,0.76,5
1.41,0.73,5
1.41,0.61,5
1.4,0.71,5
1.41,0.76,5
1.41,0.63,5
1.4,0.66,5
1.41,0.77,5
1.42,0.67,5
1.4,0.62,5
1.41,0.76,5
1.42,0.73,5
1.42,0.61,5
1.41,0.72,5
1.42,0.76,5
1.41,0.62,5
1.41,0.65,5
1.41,0.77,5
1.42,0.66,5
1.41,0.61,5
1.41,0.75,5
1.42,0.72,5
1.42,0.6,5
1.41,0.7,5
1.42,0.76,5
1.42,0.62,5
1.41,0.65,5
1.42,0.77,5
1.44,0.67,5
1.42,0.61,5
1.43,0.75,5
1.43,0.72,5
1.43,0.61,5
1.41,0.71,5
1.43,0.76,5
1.43,0.62,5
1.42,0.65,5
1.43,0.77,5
1.44,0.67,5
1.42,0.62,5
1.43,0.76,5
1.44,0.73,5
1.44,0.61,5
1.43,0.71,5
1.44,0.76,5
1.44,0.62,5
1.43,0.65,5
1.44,0.77,5
1.45,0.67,5
1.44,0.62,5
1.45,0.76,5
1.46,0.72,5
1.45,0.61,5
1.44,0.71,5
1.46,0.76,5
1.45,0.62,5
1.44,0.65,5
1.45,0.77,5
1.46,0.67,5
1.44,0.62,5
1.44,0.76,5
1.45,0.73,5
1.45,0.61,5
1.44,0.72,5
1.46,0.77,5
1.45,0.64,5
1.44,0.67,5
1.45,0.78,5
1.46,0.68,5
1.45,0.63,5
1.46,0.77,5
1.47,0.74,5
1.47,0.62,5
1.46,0.73,5
1.47,0.77,5
1.47,0.64,5
1.46,0.67,5
1.47,0.79,5
1.48,0.68,5
1.47,0.64,5
1.48,0.78,5
1.49,0.74,5
1.48,0.63,5
1.47,0.73,5
1.48,0.78,5
1.48,0.65,5
1.47,0.69,5
1.47,0.8,5
1.48,0.7,5
1.47,0.65,5
1.47,0.79,5
1.48,0.76,5
1.47,0.64,5
1.46,0.75,5
1.47,0.8,5
1.47,0.66,5
1.46,0.7,5
1.47,0.81,5
1.48,0.71,5
1.47,0.66,5
1.48,0.8,5
1.49,0.77,5
1.48,0.65,5
1.47,0.76,5
1.48,0.8,5
1.47,0.66,5
1.46,0.7,5
1.46,0.81,5
1.47,0.7,5
1.46,0.66,5
1.46,0.79,5
1.47,0.75,5
1.47,0.64,5
1.46,0.75,5
1.47,0.8,5
1.47,0.66,5
1.46,0.7,5
1.46,0.82,5
1.47,0.71,5
1.46,0.67,5
1.47,0.8,5
1.48,0.77,5
1.47,0.65,5
1.46,0.76,5
1.48,0.8,5
1.47,0.66,5
1.46,0.7,5
1.47,0.82,5
1.48,0.71,5
1.47,0.66,5
1.48,0.8,5
1.49,0.76,5
1.48,0.65,5
1.47,0.75,5
1.49,0.8,5
1.48,0.67,5
1.47,0.7,5
1.48,0.82,5
1.49,0.71,5
1.47,0.67,5
1.48,0.8,5
1.48,0.77,5
1.48,0.65,5
1.47,0.76,5
1.48,0.8,5
1.47,0.67,5
1.47,0.7,5
1.47,0.82,5
1.49,0.71,5
1.48,0.67,5
1.48,0.81,5
1.49,0.77,5
1.49,0.66,5
1.48,0.77,5
1.49,0.81,5
1.48,0.68,5
1.47,0.72,5
1.48,0.83,5
1.49,0.73,5
1.48,0.69,5
1.48,0.82,5
1.49,0.79,5
1.49,0.67,5
1.48,0.78,5
1.49,0.82,5
1.48,0.69,5
1.48,0.73,5
1.48,0.84,5
1.49,0.73,5
1.48,0.69,5
1.48,0.83,5
1.49,0.79,5
1.48,0.68,5
1.47,0.78,5
1.49,0.82,5
1.48,0.69,5
1.47,0.72,5
1.48,0.84,5
1.49,0.73,5
1.47,0.69,5
1.48,0.82,5
1.49,0.79,5
1.48,0.67,5
1.48,0.78,5
1.49,0.83,5
1.48,0.69,5
1.48,0.73,5
1.49,0.84,5
1.5,0.73,5
1.49,0.69,5
1.5,0.83,5
1.5,0.79,5
1.5,0.68,5
1.49,0.78,5
1.5,0.82,5
1.49,0.68,5
1.49,0.72,5
1.49,0.83,5
1.5,0.72,5
1.49,0.68,5
1.49,0.81,5
1.49,0.77,5
1.48,0.66,5
1.47,0.78,5
1.48,0.82,5
1.47,0.68,5
1.47,0.72,5
1.47,0.83,5
1.48,0.72,5
1.47,0.68,5
1.48,0.82,5
1.49,0.78,5
1.48,0.67,5
1.48,0.78,5
1.49,0.82,5
1.48,0.69,5
1.48,0.73,5
1.49,0.84,5
1.5,0.72,5
1.49,0.68,5
1.49,0.82,5
1.5,0.78,5
1.49,0.67,5
1.48,0.78,5
1.49,0.82,5
1.48,0.69,5
1.47,0.73,5
1.48,0.84,5
1.49,0.73,5
1.48,0.69,5
1.48,0.82,5
1.48,0.78,5
1.48,0.68,5
1.47,0.79,5
1.48,0.83,5
1.48,0.69,5
1.47,0.74,5
1.49,0.85,5
1.49,0.73,5
1.49,0.7,5
1.49,0.83,5
1.5,0.79,5
1.49,0.68,5
1.49,0.8,5
1.5,0.83,5
1.5,0.7,5
1.49,0.74,5
1.5,0.85,5
1.51,0.73,5
1.5,0.69,5
1.5,0.83,5
1.51,0.79,5
1.5,0.68,5
1.49,0.79,5
1.51,0.83,5
1.5,0.69,5
1.49,0.73,5
1.5,0.85,5
1.51,0.73,5
1.5,0.7,5
1.5,0.83,5
1.51,0.79,5
1.5,0.68,5
1.5,0.79,5
1.51,0.83,5
1.51,0.69,5
1.5,0.73,5
1.51,0.84,5
1.52,0.73,5
1.51,0.69,5
1.52,0.83,5
1.53,0.79,5
1.52,0.68,5
1.51,0.79,5
1.52,0.82,5
1.52,0.69,5
1.51,0.73,5
1.52,0.85,5
1.53,0.73,5
1.52,0.7,5
1.53,0.84,5
1.54,0.8,5
1.53,0.69,5
1.52,0.8,5
1.53,0.83,5
1.53,0.7,5
1.52,0.75,5
1.53,0.86,5
1.54,0.74,5
1.53,0.71,5
1.53,0.84,5
1.54,0.8,5
1.54,0.69,5
1.53,0.81,5
1.55,0.84,5
1.54,0.71,5
1.54,0.75,5
1.55,0.86,5
1.56,0.75,5
1.55,0.71,5
1.56,0.85,5
1.57,0.8,5
1.56,0.69,5
1.55,0.8,5
1.56,0.84,5
1.55,0.7,5
1.54,0.75,5
1.54,0.85,5
1.55,0.74,5
1.54,0.7,5
1.54,0.84,5
1.55,0.79,5
1.54,0.68,5
1.52,0.8,5
1.53,0.83,5
1.52,0.69,5
1.51,0.73,5
1.52,0.84,5
1.54,0.73,5
1.53,0.7,5
1.54,0.84,5
1.55,0.79,5
1.54,0.69,5
1.53,0.8,5
1.55,0.83,5
1.54,0.7,5
1.54,0.74,5
1.55,0.85,5
1.56,0.73,5
1.55,0.7,5
1.55,0.84,5
1.56,0.79,5
1.55,0.68,5
1.54,0.79,5
1.55,0.83,5
1.54,0.69,5
1.53,0.74,5
1.54,0.85,5
1.54,0.73,5
1.53,0.7,5
1.54,0.84,5
1.54,0.8,5
1.54,0.69,5
1.53,0.81,5
1.54,0.84,5
1.54,0.71,5
1.53,0.75,5
1.54,0.86,5
1.55,0.74,5
1.53,0.71,5
1.54,0.85,5
1.55,0.8,5
1.54,0.7,5
1.53,0.81,5
1.54,0.84,5
1.54,0.71,5
1.53,0.75,5
1.53,0.85,5
1.55,0.74,5
1.55,0.71,5
1.56,0.85,5
1.59,0.81,5
1.61,0.72,5
1.62,0.84,5
1.66,0.88,5
1.69,0.75,5
1.71,0.8,5
1.75,0.91,5
1.78,0.8,5
1.79,0.78,5
1.82,0.92,5
1.85,0.89,5
1.86,0.79,5
1.86,0.91,5
1.89,0.94,5
1.9,0.82,5
1.91,0.87,5
1.93,0.98,5
1.93,0.87,5
1.93,0.84,5
1.94,0.98,5
1.95,0.94,5
1.95,0.84,5
1.95,0.97,5
1.96,1.0,5
1.96,0.87,5
1.96,0.92,5
1.96,1.03,5
1.96,0.92,5
1.96,0.9,5
1.96,1.03,5
1.96,0.99,5
1.96,0.88,5
1.96,1.0,5
1.96,1.02,5
1.96,0.89,5
1.96,0.94,5
1.96,1.05,5
1.96,0.94,5
1.96,0.91,5
1.96,1.05,5
1.96,1.0,5
1.96,0.9,5
1.96,1.0,5
1.96,1.03,5
1.96,0.9,5
1.96,0.95,5
1.96,1.05,5
1.96,0.93,5
1.96,0.9,5
1.96,1.04,5
1.96,0.98,5
1.96,0.88,5
1.96,1.0,5
1.96,1.03,5
1.96,0.9,5
1.96,0.94,5
1.96,1.05,5
1.96,0.93,5
1.96,0.9,5
1.96,1.03,5
1.96,0.98,5
1.96,0.88,5
1.96,0.99,5
1.96,1.02,5
1.96,0.89,5
1.96,0.94,5
1.96,1.05,5
1.96,0.93,5
1.96,0.9,5
1.96,1.04,5
1.96,1.0,5
1.96,0.9,5
1.96,1.02,5
1.96,1.05,5
1.96,0.91,5
1.96,0.96,5
1.96,1.06,5
1.96,0.94,5
1.95,0.91,5
1.95,1.05,5
1.95,0.99,5
1.95,0.89,5
1.95,1.01,5
1.96,1.03,5
1.96,0.9,5
1.96,0.95,5
1.96,1.05,5
1.96,0.95,5
1.95,0.92,5
1.94,1.06,5
1.94,1.0,5
1.94,0.9,5
1.94,1.01,5
1.95,1.03,5
1.95,0.89,5
1.95,0.95,5
1.96,1.04,5
1.96,0.92,5
1.95,0.89,5
1.95,1.02,5
1.95,0.97,5
1.94,0.87,5
1.93,0.99,5
1.94,1.01,5
1.94,0.88,5
1.93,0.93,5
1.94,1.04,5
1.94,0.91,5
1.93,0.89,5
1.93,1.03,5
1.94,0.97,5
1.93,0.86,5
1.93,0.99,5
1.94,1.01,5
1.94,0.87,5
1.93,0.93,5
1.94,1.03,5
1.94,0.9,5
1.93,0.88,5
1.93,1.02,5
1.93,0.97,5
1.92,0.87,5
1.92,0.99,5
1.93,1.01,5
1.92,0.88,5
1.91,0.94,5
1.92,1.04,5
1.92,0.91,5
1.91,0.89,5
1.92,1.02,5
1.92,0.96,5
1.91,0.87,5
1.91,0.99,5
1.92,1.01,5
1.92,0.87,5
1.91,0.93,5
1.92,1.02,5
1.92,0.9,5
1.91,0.88,5
1.92,1.01,5
1.93,0.95,5
1.91,0.86,5
1.91,0.98,5
1.92,1.0,5
1.91,0.86,5
1.9,0.92,5
1.92,1.02,5
1.92,0.89,5
1.91,0.87,5
1.91,1.0,5
1.9,0.93,5
1.86,0.83,5
1.83,0.95,5
1.8,0.96,5
1.75,0.81,5
1.7,0.85,5
1.67,0.93,5
1.63,0.79,5
1.58,0.75,5
1.55,0.86,5
1.52,0.79,5
1.48,0.68,5
1.45,0.79,5
1.44,0.81,5
1.41,0.67,5
1.39,0.73,5
1.39,0.82,5
1.4,0.7,5
1.38,0.68,5
1.39,0.81,5
1.4,0.76,5
1.39,0.66,5
1.38,0.79,5
1.4,0.81,5
1.39,0.68,5
1.39,0.74,5
1.4,0.84,5
1.41,0.71,5
1.4,0.69,5
1.41,0.82,5
1.41,0.76,5
1.4,0.67,5
1.4,0.79,5
1.4,0.81,5
1.4,0.68,5
1.39,0.74,5
1.41,0.83,5
1.41,0.71,5
1.4,0.68,5
1.42,0.81,5
1.42,0.75,5
1.41,0.66,5
1.4,0.78,5
1.42,0.8,5
1.41,0.67,5
1.39,0.73,5
1.41,0.82,5
1.41,0.69,5
1.39,0.67,5
1.39,0.8,5
1.4,0.74,5
1.39,0.65,5
1.38,0.78,5
1.39,0.8,5
1.38,0.67,5
1.37,0.73,5
1.39,0.82,5
1.39,0.68,5
1.38,0.67,5
1.39,0.8,5
1.41,0.73,5
1.39,0.64,5
1.39,0.77,5
1.39,0.79,5
1.38,0.66,5
1.36,0.72,5
1.37,0.81,5
1.38,0.68,5
1.37,0.67,5
1.37,0.8,5
1.38,0.74,5
1.37,0.64,5
1.37,0.77,5
1.38,0.79,5
1.37,0.65,5
1.36,0.71,5
1.37,0.8,5
1.38,0.67,5
1.37,0.65,5
1.38,0.79,5
1.38,0.73,5
1.37,0.64,5
1.36,0.76,5
1.38,0.78,5
1.37,0.65,5
1.36,0.7,5
1.38,0.8,5
1.38,0.67,5
1.38,0.66,5
1.38,0.79,5
1.39,0.73,5
1.38,0.64,5
1.38,0.77,5
1.39,0.78,5
1.38,0.65,5
1.38,0.71,5
1.39,0.8,5
1.4,0.67,5
1.39,0.65,5
1.4,0.78,5
1.4,0.72,5
1.39,0.63,5
1.39,0.76,5
1.41,0.77,5
1.4,0.64,5
1.4,0.7,5
1.41,0.79,5
1.41,0.66,5
1.4,0.65,5
1.4,0.78,5
1.41,0.72,5
1.4,0.64,5
1.4,0.76,5
1.41,0.77,5
1.41,0.64,5
1.39,0.7,5
1.41,0.79,5
1.41,0.66,5
1.39,0.64,5
1.4,0.78,5
1.41,0.72,5
1.39,0.64,5
1.39,0.77,6
1.4,0.78,6
1.4,0.65,6
1.39,0.71,6
1.4,0.8,6
1.41,0.67,6
1.4,0.66,6
1.41,0.78,6
1.41,0.73,6
1.4,0.64,6
1.4,0.77,6
1.41,0.79,6
1.41,0.66,6
1.4,0.72,6
1.42,0.81,6
1.43,0.68,6
1.41,0.67,6
1.42,0.79,6
1.43,0.73,6
1.42,0.65,6
1.42,0.78,6
1.44,0.79,6
1.43,0.67,6
1.42,0.73,6
1.43,0.82,6
1.43,0.69,6
1.41,0.69,6
1.42,0.82,6
1.43,0.75,6
1.41,0.67,6
1.41,0.8,6
1.43,0.81,6
1.42,0.68,6
1.41,0.75,6
1.42,0.84,6
1.43,0.71,6
1.42,0.71,6
1.43,0.84,6
1.44,0.77,6
1.43,0.69,6
1.43,0.82,6
1.44,0.83,6
1.44,0.71,6
1.43,0.78,6
1.45,0.86,6
1.45,0.74,6
1.44,0.74,6
1.45,0.87,6
1.46,0.8,6
1.44,0.72,6
1.44,0.86,6
1.45,0.86,6
1.45,0.74,6
1.43,0.81,6
1.45,0.9,6
1.46,0.77,6
1.45,0.77,6
1.46,0.9,6
1.47,0.83,6
1.45,0.75,6
1.44,0.89,6
1.45,0.89,6
1.45,0.77,6
1.44,0.84,6
1.46,0.92,6
1.46,0.8,6
1.45,0.8,6
1.45,0.93,6
1.46,0.87,6
1.44,0.81,6
1.44,0.95,6
1.45,0.97,6
1.44,0.86,6
1.44,0.94,6
1.45,1.03,6
1.46,0.9,6
1.44,0.9,6
1.45,1.03,6
1.46,0.96,6
1.44,0.88,6
1.44,1.02,6
1.45,1.02,6
1.45,0.9,6
1.44,0.97,6
1.46,1.06,6
1.46,0.93,6
1.45,0.93,6
1.45,1.07,6
1.46,1.0,6
1.45,0.92,6
1.44,1.06,6
1.46,1.06,6
1.45,0.93,6
1.44,1.01,6
1.46,1.09,6
1.46,0.96,6
1.45,0.96,6
1.45,1.09,6
1.47,1.02,6
1.45,0.95,6
1.44,1.08,6
1.45,1.08,6
1.45,0.95,6
1.44,1.03,6
1.46,1.11,6
1.46,0.98,6
1.45,0.99,6
1.46,1.12,6
1.47,1.05,6
1.46,0.97,6
1.46,1.1,6
1.47,1.1,6
1.46,0.98,6
1.46,1.06,6
1.47,1.14,6
1.47,1.02,6
1.46,1.02,6
1.47,1.15,6
1.48,1.08,6
1.46,1.0,6
1.46,1.13,6
1.47,1.13,6
1.46,1.0,6
1.45,1.08,6
1.47,1.16,6
1.48,1.03,6
1.46,1.03,6
1.47,1.16,6
1.49,1.09,6
1.47,1.01,6
1.47,1.14,6
1.48,1.14,6
1.48,1.02,6
1.47,1.1,6
1.49,1.18,6
1.5,1.06,6
1.48,1.07,6
1.49,1.19,6
1.5,1.12,6
1.48,1.04,6
1.48,1.17,6
1.49,1.16,6
1.48,1.04,6
1.47,1.11,6
1.49,1.19,6
1.49,1.07,6
1.48,1.07,6
1.49,1.19,6
1.5,1.12,6
1.49,1.04,6
1.49,1.17,6
1.5,1.16,6
1.5,1.03,6
1.49,1.1,6
1.51,1.18,6
1.51,1.04,6
1.51,1.05,6
1.52,1.18,6
1.53,1.11,6
1.52,1.03,6
1.53,1.17,6
1.55,1.17,6
1.55,1.04,6
1.54,1.12,6
1.56,1.19,6
1.56,1.07,6
1.55,1.07,6
1.56,1.2,6
1.57,1.12,6
1.56,1.05,6
1.56,1.18,6
1.57,1.17,6
1.57,1.05,6
1.55,1.12,6
1.57,1.2,6
1.58,1.07,6
1.57,1.07,6
1.57,1.19,6
1.58,1.11,6
1.56,1.04,6
1.56,1.17,6
1.57,1.16,6
1.57,1.03,6
1.56,1.11,6
1.58,1.19,6
1.58,1.05,6
1.56,1.06,6
1.57,1.19,6
1.58,1.11,6
1.57,1.04,6
1.57,1.16,6
1.59,1.15,6
1.58,1.02,6
1.57,1.1,6
1.58,1.17,6
1.58,1.04,6
1.56,1.04,6
1.56,1.16,6
1.57,1.08,6
1.56,1.0,6
1.56,1.13,6
1.57,1.13,6
1.57,1.0,6
1.56,1.08,6
1.57,1.15,6
1.57,1.01,6
1.56,1.02,6
1.56,1.14,6
1.57,1.07,6
1.56,1.0,6
1.56,1.13,6
1.58,1.12,6
1.57,1.0,6
1.56,1.07,6
1.58,1.14,6
1.58,1.0,6
1.56,1.01,6
1.57,1.13,6
1.58,1.05,6
1.56,0.98,6
1.56,1.11,6
1.58,1.11,6
1.57,0.98,6
1.56,1.06,6
1.58,1.12,6
1.59,0.99,6
1.58,0.99,6
1.58,1.11,6
1.6,1.03,6
1.58,0.96,6
1.58,1.09,6
1.59,1.08,6
1.59,0.96,6
1.58,1.04,6
1.59,1.1,6
1.59,0.97,6
1.58,0.98,6
1.58,1.1,6
1.59,1.01,6
1.57,0.93,6
1.57,1.06,6
1.58,1.05,6
1.58,0.93,6
1.57,1.01,6
1.58,1.08,6
1.58,0.95,6
1.58,0.96,6
1.58,1.08,6
1.6,0.99,6
1.58,0.92,6
1.58,1.05,6
1.59,1.04,6
1.59,0.91,6
1.57,1.0,6
1.58,1.07,6
1.58,0.93,6
1.57,0.94,6
1.57,1.06,6
1.58,0.97,6
1.56,0.9,6
1.56,1.04,6
1.58,1.02,6
1.57,0.9,6
1.56,0.98,6
1.58,1.05,6
1.58,0.92,6
1.57,0.93,6
1.58,1.05,6
1.6,0.97,6
1.6,0.9,6
1.61,1.03,6
1.63,1.01,6
1.62,0.89,6
1.61,0.97,6
1.63,1.04,6
1.63,0.9,6
1.62,0.91,6
1.63,1.03,6
1.64,0.94,6
1.62,0.88,6
1.62,1.01,6
1.63,0.99,6
1.63,0.87,6
1.62,0.95,6
1.64,1.02,6
1.63,0.88,6
1.62,0.89,6
1.62,1.01,6
1.62,0.92,6
1.61,0.85,6
1.6,0.98,6
1.62,0.97,6
1.61,0.84,6
1.6,0.92,6
1.62,0.99,6
1.62,0.85,6
1.61,0.86,6
1.61,0.98,6
1.62,0.9,6
1.61,0.83,6
1.61,0.97,6
1.62,0.95,6
1.62,0.83,6
1.61,0.91,6
1.62,0.97,6
1.62,0.84,6
1.6,0.85,6
1.61,0.97,6
1.62,0.87,6
1.61,0.81,6
1.61,0.94,6
1.62,0.92,6
1.61,0.79,6
1.6,0.88,6
1.62,0.94,6
1.62,0.8,6
1.61,0.82,6
1.61,0.94,6
1.62,0.85,6
1.61,0.79,6
1.6,0.92,6
1.61,0.9,6
1.6,0.78,6
1.58,0.86,6
1.6,0.92,6
1.6,0.78,6
1.58,0.8,6
1.59,0.92,6
1.61,0.83,6
1.59,0.77,6
1.59,0.9,6
1.6,0.88,6
1.6,0.76,6
1.58,0.84,6
1.6,0.91,6
1.6,0.77,6
1.58,0.79,6
1.58,0.9,6
1.59,0.82,6
1.58,0.75,6
1.57,0.88,6
1.58,0.86,6
1.58,0.74,6
1.56,0.83,6
1.58,0.89,6
1.58,0.75,6
1.56,0.76,6
1.57,0.88,6
1.58,0.8,6
1.56,0.74,6
1.56,0.87,6
1.57,0.85,6
1.56,0.73,6
1.54,0.81,6
1.56,0.86,6
1.55,0.72,6
1.54,0.74,6
1.55,0.86,6
1.56,0.77,6
1.55,0.7,6
1.55,0.84,6
1.57,0.81,6
1.56,0.69,6
1.55,0.77,6
1.56,0.83,6
1.56,0.69,6
1.55,0.71,6
1.55,0.83,6
1.56,0.74,6
1.55,0.68,6
1.55,0.81,6
1.56,0.79,6
1.55,0.67,6
1.53,0.76,6
1.55,0.82,6
1.55,0.68,6
1.54,0.7,6
1.54,0.82,6
1.55,0.73,6
1.54,0.67,6
1.54,0.8,6
1.55,0.78,6
1.54,0.66,6
1.53,0.75,6
1.54,0.81,6
1.54,0.67,6
1.53,0.69,6
1.53,0.81,6
1.55,0.71,6
1.53,0.65,6
1.53,0.79,6
1.54,0.76,6
1.53,0.64,6
1.52,0.74,6
1.54,0.8,6
1.54,0.66,6
1.53,0.69,6
1.53,0.8,6
1.54,0.7,6
1.52,0.64,6
1.52,0.77,6
1.52,0.75,6
1.51,0.63,6
1.5,0.72,6
1.51,0.78,6
1.51,0.65,6
1.5,0.67,6
1.51,0.79,6
1.52,0.69,6
1.51,0.63,6
1.51,0.76,6
1.52,0.73,6
1.52,0.61,6
1.5,0.71,6
1.52,0.76,6
1.51,0.63,6
1.5,0.65,6
1.51,0.77,6
1.52,0.67,6
1.5,0.62,6
1.51,0.75,6
1.52,0.72,6
1.51,0.6,6
1.5,0.7,6
1.52,0.75,6
1.52,0.62,6
1.51,0.64,6
1.52,0.75,6
1.53,0.66,6
1.51,0.6,6
1.52,0.74,6
1.53,0.71,6
1.52,0.59,6
1.51,0.69,6
1.53,0.74,6
1.53,0.61,6
1.52,0.63,6
1.52,0.75,6
1.53,0.65,6
1.52,0.6,6
1.52,0.73,6
1.52,0.7,6
1.52,0.59,6
1.5,0.69,6
1.52,0.74,6
1.52,0.61,6
1.5,0.63,6
1.51,0.75,6
1.52,0.65,6
1.5,0.6,6
1.5,0.73,6
1.51,0.71,6
1.51,0.59,6
1.49,0.68,6
1.51,0.74,6
1.51,0.6,6
1.5,0.63,6
1.5,0.74,6
1.52,0.65,6
1.51,0.6,6
1.53,0.74,6
1.55,0.72,6
1.57,0.61,6
1.58,0.71,6
1.62,0.77,6
1.64,0.64,6
1.66,0.67,6
1.68,0.79,6
1.72,0.7,6
1.73,0.66,6
1.75,0.8,6
1.78,0.78,6
1.8,0.66,6
1.81,0.77,6
1.84,0.83,6
1.86,0.7,6
1.87,0.74,6
1.89,0.86,6
1.9,0.77,6
1.9,0.73,6
1.91,0.87,6
1.92,0.85,6
1.93,0.74,6
1.93,0.84,6
1.95,0.9,6
1.95,0.77,6
1.95,0.8,6
1.96,0.92,6
1.96,0.84,6
1.95,0.79,6
1.95,0.92,6
1.95,0.9,6
1.95,0.78,6
1.95,0.87,6
1.96,0.92,6
1.96,0.79,6
1.96,0.81,6
1.96,0.93,6
1.96,0.83,6
1.95,0.78,6
1.95,0.92,6
1.95,0.89,6
1.95,0.77,6
1.95,0.87,6
1.96,0.92,6
1.96,0.78,6
1.95,0.81,6
1.95,0.93,6
1.95,0.84,6
1.94,0.79,6
1.94,0.92,6
1.95,0.9,6
1.94,0.78,6
1.94,0.87,6
1.95,0.91,6
1.95,0.78,6
1.95,0.8,6
1.95,0.91,6
1.95,0.81,6
1.94,0.76,6
1.94,0.9,6
1.95,0.86,6
1.94,0.74,6
1.94,0.84,6
1.95,0.88,6
1.96,0.74,6
1.94,0.78,6
1.95,0.89,6
1.95,0.79,6
1.93,0.74,6
1.93,0.88,6
1.94,0.84,6
1.94,0.72,6
1.94,0.82,6
1.95,0.87,6
1.95,0.74,6
1.95,0.77,6
1.95,0.89,6
1.95,0.78,6
1.93,0.73,6
1.93,0.87,6
1.93,0.83,6
1.92,0.72,6
1.92,0.82,6
1.93,0.87,6
1.93,0.73,6
1.92,0.76,6
1.92,0.88,6
1.92,0.77,6
1.91,0.72,6
1.91,0.86,6
1.92,0.82,6
1.91,0.71,6
1.91,0.81,6
1.92,0.86,6
1.92,0.72,6
1.91,0.76,6
1.91,0.87,6
1.91,0.77,6
1.9,0.72,6
1.9,0.86,6
1.9,0.83,6
1.89,0.72,6
1.89,0.82,6
1.9,0.86,6
1.89,0.72,6
1.88,0.75,6
1.89,0.87,6
1.9,0.76,6
1.88,0.71,6
1.88,0.84,6
1.89,0.81,6
1.88,0.69,6
1.87,0.8,6
1.88,0.84,6
1.87,0.7,6
1.86,0.73,6
1.87,0.84,6
1.88,0.74,6
1.86,0.69,6
1.87,0.83,6
1.88,0.79,6
1.87,0.67,6
1.86,0.77,6
1.88,0.82,6
1.87,0.68,6
1.86,0.71,6
1.86,0.82,6
1.86,0.72,6
1.84,0.67,6
1.85,0.8,6
1.86,0.77,6
1.85,0.65,6
1.84,0.75,6
1.85,0.79,6
1.85,0.66,6
1.84,0.69,6
1.84,0.8,6
1.85,0.69,6
1.83,0.65,6
1.83,0.78,6
1.84,0.74,6
1.83,0.63,6
1.82,0.73,6
1.83,0.77,6
1.82,0.64,6
1.82,0.67,6
1.82,0.78,6
1.84,0.67,6
1.82,0.63,6
1.83,0.76,6
1.83,0.72,6
1.82,0.61,6
1.81,0.71,6
1.82,0.75,6
1.81,0.61,6
1.81,0.64,6
1.81,0.75,6
1.82,0.63,6
1.81,0.59,6
1.81,0.72,6
1.81,0.68,6
1.81,0.57,6
1.8,0.68,6
1.82,0.72,6
1.82,0.59,6
1.82,0.62,6
1.82,0.73,6
1.82,0.62,6
1.79,0.57,6
1.76,0.7,6
1.73,0.66,6
1.7,0.54,6
1.66,0.64,6
1.63,0.67,6
1.59,0.52,6
1.54,0.55,6
1.51,0.65,6
1.49,0.53,6
1.44,0.48,6
1.41,0.6,6
1.38,0.55,6
1.34,0.44,6
1.3,0.54,6
1.28,0.57,6
1.24,0.43,6
1.21,0.47,6
1.2,0.57,6
1.2,0.46,6
1.18,0.41,6
1.19,0.55,6
1.19,0.51,6
1.18,0.4,6
1.17,0.51,6
1.19,0.55,6
1.18,0.41,6
1.18,0.45,6
1.19,0.56,6
1.2,0.45,6
1.19,0.41,6
1.19,0.54,6
1.2,0.5,6
1.19,0.39,6
1.18,0.49,6
1.2,0.53,6
1.19,0.4,6
1.19,0.44,6
1.19,0.55,6
1.2,0.44,6
1.18,0.41,6
1.18,0.54,6
1.19,0.5,6
1.18,0.39,6
1.17,0.5,6
1.19,0.54,6
1.18,0.41,6
1.18,0.45,6
1.19,0.56,6
1.2,0.45,6
1.18,0.41,6
1.19,0.55,6
1.19,0.51,6
1.19,0.4,6
1.18,0.52,6
1.19,0.55,6
1.18,0.42,6
1.17,0.46,6
1.18,0.57,6
1.19,0.46,6
1.18,0.42,6
1.18,0.55,6
1.19,0.51,6
1.19,0.39,6
1.19,0.5,6
1.2,0.53,6
1.2,0.39,6
1.19,0.43,6
1.19,0.54,6
1.2,0.43,6
1.18,0.39,6
1.19,0.53,6
1.19,0.49,6
1.18,0.38,6
1.17,0.49,6
1.18,0.53,6
1.18,0.4,6
1.18,0.44,6
1.19,0.55,6
1.2,0.44,6
1.19,0.41,6
1.2,0.54,6
1.21,0.5,6
1.2,0.39,6
1.19,0.5,6
1.2,0.54,6
1.19,0.41,6
1.18,0.45,6
1.19,0.55,6
1.19,0.44,6
1.18,0.41,6
1.19,0.54,6
1.19,0.51,6
1.18,0.4,6
1.17,0.51,6
1.19,0.54,6
1.18,0.41,6
1.18,0.45,6
1.19,0.56,6
1.21,0.45,6
1.2,0.41,6
1.21,0.55,6
1.21,0.51,6
1.2,0.4,6
1.19,0.51,6
1.21,0.54,6
1.2,0.41,6
1.19,0.45,6
1.2,0.55,6
1.2,0.44,6
1.19,0.41,6
1.2,0.55,6
1.2,0.51,6
1.2,0.4,6
1.19,0.51,6
1.2,0.54,6
1.2,0.41,6
1.2,0.45,6
1.2,0.56,6
1.21,0.45,6
1.2,0.42,6
1.21,0.55,6
1.22,0.51,6
1.21,0.41,6
1.21,0.53,6
1.22,0.56,6
1.22,0.43,6
1.21,0.47,6
1.22,0.57,6
1.23,0.46,6
1.22,0.43,6
1.23,0.56,6
1.25,0.52,6
1.25,0.42,6
1.24,0.53,6
1.25,0.56,6
1.25,0.43,6
1.23,0.47,6
1.24,0.57,6
1.25,0.46,6
1.24,0.43,6
1.25,0.56,6
1.27,0.53,7
1.26,0.42,7
1.25,0.54,7
1.26,0.57,7
1.26,0.44,7
1.25,0.47,7
1.26,0.58,7
1.27,0.46,7
1.26,0.43,7
1.27,0.56,7
1.28,0.52,7
1.27,0.42,7
1.26,0.53,7
1.27,0.55,7
1.26,0.42,7
1.26,0.46,7
1.26,0.57,7
1.27,0.45,7
1.26,0.42,7
1.27,0.56,7
1.28,0.52,7
1.27,0.41,7
1.26,0.53,7
1.27,0.56,7
1.26,0.43,7
1.26,0.47,7
1.26,0.58,7
1.27,0.46,7
1.26,0.43,7
1.27,0.56,7
1.28,0.52,7
1.27,0.42,7
1.26,0.53,7
1.27,0.56,7
1.26,0.43,7
1.25,0.48,7
1.26,0.59,7
1.26,0.47,7
1.25,0.44,7
1.26,0.58,7
1.26,0.53,7
1.26,0.42,7
1.25,0.54,7
1.26,0.57,7
1.25,0.44,7
1.23,0.49,7
1.23,0.59,7
1.24,0.48,7
1.23,0.45,7
1.24,0.58,7
1.25,0.54,7
1.25,0.43,7
1.25,0.55,7
1.26,0.58,7
1.26,0.45,7
1.25,0.5,7
1.26,0.6,7
1.27,0.48,7
1.26,0.46,7
1.27,0.59,7
1.27,0.54,7
1.26,0.44,7
1.25,0.55,7
1.27,0.58,7
1.26,0.44,7
1.25,0.49,7
1.26,0.59,7
1.27,0.48,7
1.25,0.45,7
1.26,0.59,7
1.27,0.54,7
1.26,0.44,7
1.26,0.56,7
1.27,0.58,7
1.27,0.45,7
1.27,0.51,7
1.28,0.61,7
1.29,0.49,7
1.28,0.46,7
1.29,0.59,7
1.3,0.54,7
1.29,0.44,7
1.28,0.56,7
1.29,0.58,7
1.28,0.45,7
1.27,0.5,7
1.28,0.61,7
1.29,0.49,7
1.27,0.47,7
1.28,0.6,7
1.29,0.55,7
1.29,0.45,7
1.28,0.57,7
1.29,0.6,7
1.29,0.47,7
1.29,0.52,7
1.29,0.62,7
1.3,0.51,7
1.29,0.48,7
1.29,0.61,7
1.3,0.56,7
1.29,0.46,7
1.28,0.58,7
1.3,0.61,7
1.29,0.48,7
1.28,0.54,7
1.28,0.64,7
1.29,0.52,7
1.28,0.5,7
1.28,0.63,7
1.3,0.58,7
1.29,0.48,7
1.28,0.6,7
1.29,0.62,7
1.29,0.49,7
1.27,0.55,7
1.28,0.65,7
1.29,0.53,7
1.29,0.51,7
1.29,0.64,7
1.3,0.59,7
1.3,0.49,7
1.28,0.61,7
1.29,0.63,7
1.28,0.5,7
1.27,0.56,7
1.27,0.66,7
1.28,0.54,7
1.26,0.52,7
1.27,0.65,7
1.28,0.59,7
1.27,0.5,7
1.27,0.62,7
1.28,0.64,7
1.27,0.51,7
1.26,0.57,7
1.27,0.67,7
1.28,0.54,7
1.27,0.52,7
1.28,0.65,7
1.29,0.6,7
1.28,0.5,7
1.27,0.62,7
1.28,0.64,7
1.27,0.51,7
1.26,0.56,7
1.27,0.66,7
1.28,0.54,7
1.27,0.52,7
1.28,0.65,7
1.29,0.6,7
1.28,0.5,7
1.28,0.62,7
1.29,0.65,7
1.28,0.52,7
1.27,0.57,7
1.28,0.67,7
1.28,0.55,7
1.26,0.53,7
1.27,0.66,7
1.27,0.61,7
1.26,0.51,7
1.26,0.63,7
1.27,0.65,7
1.27,0.52,7
1.26,0.57,7
1.27,0.67,7
1.28,0.55,7
1.27,0.54,7
1.28,0.67,7
1.28,0.61,7
1.27,0.51,7
1.26,0.63,7
1.27,0.65,7
1.26,0.52,7
1.25,0.58,7
1.27,0.68,7
1.28,0.56,7
1.26,0.54,7
1.27,0.67,7
1.28,0.61,7
1.27,0.51,7
1.27,0.64,7
1.29,0.66,7
1.29,0.53,7
1.28,0.58,7
1.29,0.68,7
1.3,0.56,7
1.28,0.54,7
1.29,0.67,7
1.29,0.62,7
1.28,0.52,7
1.27,0.64,7
1.29,0.66,7
1.28,0.53,7
1.28,0.59,7
1.29,0.69,7
1.29,0.56,7
1.28,0.54,7
1.29,0.67,7
1.3,0.61,7
1.29,0.51,7
1.29,0.64,7
1.3,0.65,7
1.29,0.52,7
1.28,0.58,7
1.29,0.67,7
1.3,0.55,7
1.28,0.53,7
1.29,0.66,7
1.3,0.6,7
1.28,0.51,7
1.28,0.63,7
1.29,0.65,7
1.29,0.52,7
1.28,0.58,7
1.3,0.68,7
1.31,0.55,7
1.3,0.54,7
1.3,0.67,7
1.32,0.61,7
1.31,0.51,7
1.31,0.63,7
1.32,0.65,7
1.31,0.51,7
1.3,0.57,7
1.31,0.66,7
1.31,0.54,7
1.29,0.53,7
1.3,0.66,7
1.31,0.6,7
1.29,0.51,7
1.29,0.63,7
1.3,0.64,7
1.29,0.51,7
1.29,0.57,7
1.3,0.66,7
1.31,0.54,7
1.3,0.53,7
1.31,0.66,7
1.32,0.59,7
1.3,0.5,7
1.3,0.62,7
1.31,0.64,7
1.31,0.51,7
1.3,0.57,7
1.31,0.67,7
1.32,0.54,7
1.31,0.53,7
1.31,0.66,7
1.32,0.6,7
1.31,0.51,7
1.3,0.63,7
1.31,0.64,7
1.3,0.51,7
1.29,0.57,7
1.3,0.66,7
1.31,0.53,7
1.3,0.52,7
1.3,0.65,7
1.31,0.58,7
1.3,0.49,7
1.29,0.61,7
1.3,0.63,7
1.3,0.5,7
1.29,0.56,7
1.31,0.65,7
1.32,0.52,7
1.31,0.51,7
1.32,0.64,7
1.33,0.58,7
1.32,0.49,7
1.31,0.61,7
1.33,0.62,7
1.32,0.49,7
1.31,0.56,7
1.32,0.65,7
1.33,0.53,7
1.31,0.51,7
1.32,0.64,7
1.33,0.58,7
1.31,0.49,7
1.3,0.62,7
1.32,0.63,7
1.31,0.51,7
1.3,0.57,7
1.31,0.66,7
1.31,0.54,7
1.3,0.53,7
1.31,0.66,7
1.32,0.6,7
1.3,0.51,7
1.3,0.64,7
1.31,0.65,7
1.31,0.52,7
1.3,0.58,7
1.32,0.67,7
1.32,0.54,7
1.31,0.53,7
1.32,0.66,7
1.33,0.6,7
1.32,0.51,7
1.32,0.64,7
1.33,0.65,7
1.33,0.52,7
1.32,0.58,7
1.33,0.68,7
1.34,0.55,7
1.32,0.54,7
1.33,0.67,7
1.34,0.6,7
1.32,0.51,7
1.32,0.63,7
1.33,0.64,7
1.32,0.52,7
1.31,0.58,7
1.33,0.68,7
1.33,0.55,7
1.32,0.55,7
1.33,0.67,7
1.34,0.61,7
1.33,0.52,7
1.33,0.65,7
1.35,0.66,7
1.34,0.53,7
1.33,0.6,7
1.34,0.69,7
1.35,0.56,7
1.33,0.55,7
1.34,0.68,7
1.35,0.61,7
1.33,0.52,7
1.32,0.65,7
1.33,0.66,7
1.32,0.53,7
1.3,0.6,7
1.32,0.68,7
1.32,0.56,7
1.31,0.55,7
1.32,0.68,7
1.32,0.61,7
1.31,0.52,7
1.31,0.65,7
1.32,0.65,7
1.32,0.53,7
1.32,0.6,7
1.33,0.69,7
1.33,0.56,7
1.33,0.56,7
1.33,0.69,7
1.34,0.62,7
1.33,0.53,7
1.32,0.66,7
1.33,0.67,7
1.33,0.55,7
1.32,0.61,7
1.34,0.7,7
1.34,0.57,7
1.33,0.56,7
1.34,0.69,7
1.35,0.62,7
1.34,0.53,7
1.34,0.66,7
1.35,0.67,7
1.35,0.54,7
1.34,0.61,7
1.35,0.7,7
1.35,0.57,7
1.34,0.57,7
1.35,0.69,7
1.36,0.62,7
1.34,0.54,7
1.34,0.67,7
1.35,0.67,7
1.34,0.55,7
1.33,0.61,7
1.34,0.7,7
1.34,0.57,7
1.33,0.57,7
1.34,0.69,7
1.35,0.62,7
1.33,0.53,7
1.33,0.66,7
1.35,0.67,7
1.34,0.54,7
1.34,0.61,7
1.36,0.7,7
1.36,0.57,7
1.35,0.56,7
1.36,0.69,7
1.37,0.62,7
1.36,0.53,7
1.36,0.66,7
1.37,0.66,7
1.36,0.53,7
1.36,0.61,7
1.37,0.69,7
1.38,0.56,7
1.36,0.56,7
1.37,0.68,7
1.38,0.61,7
1.37,0.53,7
1.37,0.66,7
1.38,0.66,7
1.37,0.53,7
1.37,0.6,7
1.39,0.69,7
1.39,0.56,7
1.38,0.56,7
1.39,0.68,7
1.39,0.61,7
1.38,0.53,7
1.38,0.66,7
1.39,0.67,7
1.39,0.54,7
1.38,0.61,7
1.39,0.7,7
1.39,0.57,7
1.38,0.57,7
1.39,0.69,7
1.4,0.62,7
1.38,0.54,7
1.38,0.67,7
1.4,0.67,7
1.39,0.54,7
1.39,0.61,7
1.4,0.69,7
1.4,0.56,7
1.39,0.56,7
1.39,0.69,7
1.4,0.63,7
1.39,0.55,7
1.39,0.68,7
1.39,0.68,7
1.39,0.55,7
1.38,0.62,7
1.39,0.7,7
1.4,0.58,7
1.39,0.58,7
1.39,0.7,7
1.4,0.63,7
1.39,0.55,7
1.38,0.68,7
1.4,0.68,7
1.39,0.55,7
1.39,0.63,7
1.41,0.71,7
1.41,0.58,7
1.4,0.58,7
1.4,0.71,7
1.41,0.63,7
1.39,0.55,7
1.39,0.68,7
1.4,0.68,7
1.4,0.56,7
1.39,0.63,7
1.41,0.71,7
1.41,0.58,7
1.4,0.58,7
1.41,0.71,7
1.42,0.64,7
1.41,0.56,7
1.41,0.69,7
1.43,0.7,7
1.42,0.57,7
1.41,0.64,7
1.43,0.72,7
1.44,0.59,7
1.43,0.59,7
1.44,0.72,7
1.45,0.64,7
1.43,0.57,7
1.43,0.7,7
1.44,0.7,7
1.44,0.57,7
1.43,0.65,7
1.45,0.72,7
1.44,0.6,7
1.43,0.6,7
1.44,0.72,7
1.44,0.65,7
1.43,0.57,7
1.43,0.7,7
1.44,0.7,7
1.43,0.57,7
1.42,0.65,7
1.44,0.72,7
1.44,0.6,7
1.43,0.6,7
1.44,0.72,7
1.45,0.65,7
1.43,0.57,7
1.43,0.7,7
1.44,0.7,7
1.44,0.58,7
1.43,0.66,7
1.44,0.73,7
1.44,0.6,7
1.43,0.6,7
1.44,0.72,7
1.44,0.64,7
1.43,0.57,7
1.44,0.7,7
1.46,0.7,7
1.48,0.59,7
1.5,0.67,7
1.54,0.75,7
1.56,0.63,7
1.58,0.64,7
1.61,0.77,7
1.65,0.7,7
1.65,0.64,7
1.68,0.77,7
1.71,0.77,7
1.72,0.65,7
1.74,0.73,7
1.77,0.8,7
1.79,0.67,7
1.8,0.68,7
1.82,0.81,7
1.85,0.75,7
1.85,0.68,7
1.87,0.82,7
1.89,0.83,7
1.9,0.71,7
1.9,0.79,7
1.93,0.88,7
1.93,0.75,7
1.92,0.77,7
1.94,0.9,7
1.94,0.82,7
1.93,0.76,7
1.93,0.9,7
1.95,0.89,7
1.94,0.77,7
1.94,0.86,7
1.96,0.93,7
1.96,0.8,7
1.95,0.81,7
1.95,0.93,7
1.95,0.85,7
1.93,0.78,7
1.93,0.92,7
1.94,0.91,7
1.93,0.79,7
1.93,0.87,7
1.93,0.94,7
1.93,0.81,7
1.9,0.82,7
1.9,0.94,7
1.9,0.86,7
1.88,0.79,7
1.88,0.92,7
1.89,0.91,7
1.88,0.79,7
1.87,0.87,7
1.88,0.95,7
1.88,0.81,7
1.86,0.83,7
1.87,0.95,7
1.88,0.87,7
1.86,0.79,7
1.86,0.93,7
1.88,0.92,7
1.87,0.79,7
1.87,0.87,7
1.89,0.94,7
1.89,0.81,7
1.88,0.82,7
1.89,0.94,7
1.9,0.86,7
1.88,0.79,7
1.87,0.92,7
1.88,0.91,7
1.87,0.78,7
1.86,0.87,7
1.88,0.94,7
1.87,0.81,7
1.86,0.82,7
1.86,0.94,7
1.87,0.85,7
1.85,0.79,7
1.86,0.92,7
1.87,0.91,7
1.87,0.79,7
1.86,0.87,7
1.87,0.94,7
1.86,0.8,7
1.84,0.82,7
1.85,0.94,7
1.86,0.86,7
1.84,0.79,7
1.84,0.92,7
1.85,0.91,7
1.84,0.79,7
1.83,0.87,7
1.85,0.93,7
1.84,0.8,7
1.83,0.82,7
1.83,0.94,7
1.84,0.86,7
1.82,0.79,7
1.83,0.92,7
1.84,0.9,7
1.83,0.78,7
1.82,0.87,7
1.83,0.93,7
1.83,0.8,7
1.82,0.81,7
1.83,0.93,7
1.84,0.85,7
1.81,0.78,7
1.81,0.91,7
1.82,0.9,7
1.81,0.78,7
1.79,0.86,7
1.81,0.93,7
1.8,0.79,7
1.79,0.81,7
1.79,0.93,7
1.8,0.84,7
1.78,0.77,7
1.78,0.91,7
1.8,0.89,7
1.79,0.77,7
1.78,0.86,7
1.8,0.92,7
1.8,0.78,7
1.78,0.8,7
1.79,0.92,7
1.8,0.83,7
1.78,0.77,7
1.77,0.9,7
1.78,0.89,7
1.78,0.77,7
1.77,0.86,7
1.78,0.92,7
1.78,0.79,7
1.77,0.8,7
1.77,0.92,7
1.78,0.84,7
1.77,0.77,7
1.77,0.91,7
1.78,0.89,7
1.77,0.77,7
1.76,0.86,7
1.78,0.92,7
1.77,0.79,7
1.76,0.81,7
1.76,0.93,7
1.77,0.84,7
1.76,0.78,7
1.76,0.91,7
1.77,0.9,7
1.77,0.78,7
1.75,0.86,7
1.77,0.93,7
1.76,0.79,7
1.75,0.81,7
1.76,0.93,7
1.77,0.84,7
1.75,0.78,7
1.75,0.92,7
1.77,0.9,7
1.77,0.78,7
1.75,0.87,7
1.76,0.92,7
1.74,0.78,7
1.7,0.8,7
1.67,0.91,7
1.65,0.82,7
1.6,0.75,7
1.57,0.88,7
1.54,0.85,7
1.5,0.72,7
1.45,0.8,7
1.44,0.85,7
1.4,0.7,7
1.36,0.71,7
1.33,0.82,7
1.32,0.72,7
1.27,0.65,7
1.25,0.78,7
1.25,0.76,7
1.23,0.63,7
1.21,0.72,7
1.22,0.77,7
1.21,0.64,7
1.2,0.66,7
1.21,0.78,7
1.23,0.68,7
1.21,0.62,7
1.22,0.76,7
1.23,0.73,7
1.22,0.62,7
1.22,0.71,7
1.24,0.77,7
1.24,0.63,7
1.23,0.66,7
1.24,0.77,7
1.26,0.68,7
1.24,0.62,7
1.24,0.75,7
1.25,0.73,7
1.25,0.62,7
1.23,0.71,7
1.25,0.77,7
1.24,0.63,7
1.23,0.66,7
1.24,0.77,7
1.24,0.68,7
1.22,0.62,7
1.23,0.76,7
1.24,0.74,7
1.24,0.62,7
1.23,0.71,7
1.25,0.77,7
1.25,0.63,7
1.24,0.66,7
1.25,0.77,7
1.26,0.68,7
1.25,0.63,7
1.26,0.76,7
1.26,0.74,7
1.26,0.62,7
1.24,0.72,7
1.26,0.77,7
1.25,0.64,7
1.25,0.67,7
1.25,0.79,7
1.27,0.69,7
1.25,0.64,7
1.26,0.77,7
1.27,0.75,7
1.27,0.63,7
1.26,0.73,7
1.27,0.78,7
1.27,0.65,7
1.26,0.67,7
1.27,0.79,7
1.28,0.69,7
1.26,0.64,7
1.27,0.77,7
1.28,0.75,7
1.27,0.63,7
1.26,0.73,7
1.28,0.78,7
1.28,0.65,7
1.27,0.67,7
1.27,0.79,7
1.29,0.7,7
1.27,0.65,7
1.28,0.78,7
1.29,0.76,7
1.28,0.64,7
1.27,0.74,7
1.29,0.79,7
1.28,0.65,7
1.27,0.68,7
1.28,0.8,7
1.29,0.7,7
1.28,0.65,7
1.28,0.78,7
1.29,0.75,7
1.28,0.64,7
1.27,0.73,7
1.29,0.78,7
1.29,0.65,7
1.28,0.67,7
1.28,0.79,7
1.3,0.69,7
1.28,0.64,7
1.29,0.78,7
1.3,0.76,7
1.3,0.64,7
1.29,0.74,7
1.31,0.79,7
1.31,0.66,7
1.3,0.68,7
1.31,0.8,7
1.33,0.7,7
1.32,0.64,7
1.32,0.77,7
1.33,0.74,7
1.32,0.63,7
1.31,0.73,7
1.32,0.78,7
1.32,0.64,7
1.31,0.67,7
1.32,0.79,7
1.33,0.69,7
1.32,0.64,7
1.33,0.77,7
1.35,0.74,7
1.34,0.63,7
1.33,0.73,7
1.35,0.78,7
1.35,0.65,7
1.34,0.68,7
1.35,0.79,7
1.36,0.69,7
1.34,0.64,7
1.34,0.77,7
1.35,0.74,7
1.34,0.63,7
1.33,0.74,7
1.35,0.79,7
1.34,0.66,7
1.34,0.69,7
1.34,0.8,7
1.36,0.7,7
1.34,0.65,7
1.35,0.78,7
1.36,0.76,7
1.35,0.64,7
1.34,0.74,7
1.35,0.79,7
1.34,0.66,7
1.33,0.69,7
1.34,0.8,7
1.35,0.7,7
1.34,0.66,7
1.34,0.79,7
1.35,0.76,7
1.35,0.65,7
1.33,0.75,7
1.35,0.8,8
1.35,0.66,8
1.34,0.69,8
1.35,0.81,8
1.36,0.71,8
1.35,0.66,8
1.35,0.79,8
1.36,0.76,8
1.35,0.65,8
1.34,0.75,8
1.36,0.8,8
1.35,0.66,8
1.35,0.69,8
1.35,0.81,8
1.37,0.71,8
1.35,0.66,8
1.36,0.8,8
1.36,0.78,8
1.36,0.67,8
1.35,0.77,8
1.36,0.82,8
1.36,0.69,8
1.35,0.72,8
1.36,0.83,8
1.37,0.73,8
1.36,0.68,8
1.36,0.81,8
1.37,0.78,8
1.37,0.67,8
1.36,0.77,8
1.37,0.82,8
1.36,0.69,8
1.35,0.72,8
1.36,0.83,8
1.37,0.73,8
1.36,0.68,8
1.36,0.82,8
1.37,0.78,8
1.36,0.67,8
1.35,0.78,8
1.37,0.82,8
1.37,0.68,8
1.36,0.72,8
1.37,0.83,8
1.38,0.73,8
1.37,0.69,8
1.38,0.82,8
1.39,0.79,8
1.39,0.67,8
1.38,0.77,8
1.39,0.82,8
1.39,0.69,8
1.38,0.72,8
1.39,0.84,8
1.4,0.73,8
1.38,0.69,8
1.39,0.82,8
1.4,0.79,8
1.39,0.68,8
1.38,0.78,8
1.39,0.83,8
1.39,0.69,8
1.39,0.72,8
1.4,0.84,8
1.41,0.73,8
1.4,0.69,8
1.41,0.82,8
1.42,0.79,8
1.41,0.68,8
1.4,0.78,8
1.41,0.83,8
1.41,0.7,8
1.4,0.73,8
1.4,0.84,8
1.41,0.74,8
1.4,0.69,8
1.41,0.83,8
1.41,0.8,8
1.41,0.69,8
1.4,0.79,8
1.41,0.84,8
1.4,0.7,8
1.39,0.73,8
1.4,0.85,8
1.41,0.74,8
1.39,0.7,8
1.4,0.84,8
1.42,0.8,8
1.42,0.69,8
1.42,0.8,8
1.44,0.84,8
1.44,0.71,8
1.43,0.74,8
1.44,0.85,8
1.45,0.74,8
1.44,0.7,8
1.44,0.83,8
1.45,0.8,8
1.44,0.69,8
1.43,0.79,8
1.44,0.84,8
1.43,0.71,8
1.42,0.74,8
1.43,0.86,8
1.43,0.75,8
1.42,0.71,8
1.42,0.84,8
1.43,0.81,8
1.42,0.7,8
1.41,0.81,8
1.42,0.85,8
1.42,0.72,8
1.41,0.75,8
1.41,0.86,8
1.43,0.76,8
1.42,0.72,8
1.42,0.85,8
1.44,0.82,8
1.43,0.71,8
1.42,0.81,8
1.43,0.85,8
1.43,0.72,8
1.42,0.75,8
1.42,0.87,8
1.43,0.76,8
1.42,0.72,8
1.42,0.85,8
1.43,0.81,8
1.42,0.7,8
1.41,0.81,8
1.43,0.85,8
1.43,0.72,8
1.43,0.75,8
1.44,0.86,8
1.45,0.75,8
1.43,0.71,8
1.44,0.84,8
1.45,0.81,8
1.44,0.7,8
1.44,0.8,8
1.45,0.84,8
1.44,0.71,8
1.44,0.74,8
1.45,0.86,8
1.46,0.75,8
1.44,0.71,8
1.45,0.84,8
1.46,0.8,8
1.45,0.69,8
1.44,0.8,8
1.45,0.84,8
1.45,0.71,8
1.44,0.75,8
1.44,0.86,8
1.45,0.75,8
1.44,0.71,8
1.45,0.84,8
1.46,0.81,8
1.45,0.7,8
1.45,0.81,8
1.46,0.85,8
1.46,0.71,8
1.46,0.74,8
1.47,0.85,8
1.48,0.74,8
1.47,0.7,8
1.47,0.83,8
1.48,0.8,8
1.47,0.69,8
1.46,0.8,8
1.48,0.84,8
1.47,0.71,8
1.47,0.75,8
1.47,0.86,8
1.48,0.75,8
1.48,0.71,8
1.49,0.84,8
1.49,0.8,8
1.49,0.69,8
1.48,0.8,8
1.48,0.84,8
1.48,0.71,8
1.47,0.75,8
1.47,0.86,8
1.48,0.75,8
1.47,0.71,8
1.47,0.84,8
1.48,0.8,8
1.48,0.69,8
1.47,0.8,8
1.48,0.84,8
1.48,0.71,8
1.47,0.75,8
1.48,0.86,8
1.49,0.75,8
1.47,0.71,8
1.48,0.84,8
1.49,0.8,8
1.48,0.69,8
1.47,0.8,8
1.48,0.83,8
1.48,0.7,8
1.47,0.74,8
1.47,0.85,8
1.48,0.74,8
1.47,0.71,8
1.48,0.84,8
1.49,0.8,8
1.49,0.69,8
1.48,0.81,8
1.5,0.84,8
1.49,0.71,8
1.49,0.75,8
1.5,0.86,8
1.51,0.75,8
1.5,0.71,8
1.5,0.85,8
1.51,0.81,8
1.51,0.7,8
1.5,0.81,8
1.51,0.85,8
1.51,0.72,8
1.5,0.76,8
1.51,0.87,8
1.51,0.76,8
1.49,0.73,8
1.49,0.86,8
1.5,0.82,8
1.49,0.71,8
1.48,0.82,8
1.5,0.86,8
1.5,0.72,8
1.49,0.76,8
1.49,0.87,8
1.51,0.76,8
1.5,0.73,8
1.51,0.86,8
1.52,0.82,8
1.52,0.71,8
1.51,0.82,8
1.53,0.85,8
1.52,0.71,8
1.51,0.76,8
1.51,0.86,8
1.53,0.75,8
1.51,0.72,8
1.52,0.85,8
1.53,0.81,8
1.52,0.7,8
1.51,0.82,8
1.53,0.85,8
1.52,0.72,8
1.51,0.77,8
1.52,0.87,8
1.52,0.76,8
1.51,0.72,8
1.51,0.86,8
1.52,0.81,8
1.51,0.71,8
1.5,0.82,8
1.51,0.86,8
1.51,0.73,8
1.5,0.77,8
1.51,0.88,8
1.52,0.76,8
1.5,0.73,8
1.51,0.86,8
1.52,0.82,8
1.51,0.72,8
1.5,0.83,8
1.51,0.87,8
1.51,0.73,8
1.5,0.78,8
1.51,0.89,8
1.52,0.77,8
1.51,0.74,8
1.52,0.88,8
1.53,0.83,8
1.52,0.73,8
1.52,0.84,8
1.53,0.87,8
1.53,0.74,8
1.52,0.79,8
1.53,0.89,8
1.53,0.78,8
1.52,0.75,8
1.52,0.88,8
1.53,0.83,8
1.53,0.73,8
1.52,0.84,8
1.54,0.88,8
1.54,0.75,8
1.53,0.8,8
1.54,0.9,8
1.55,0.79,8
1.54,0.75,8
1.55,0.88,8
1.56,0.83,8
1.55,0.72,8
1.54,0.83,8
1.56,0.86,8
1.56,0.73,8
1.55,0.78,8
1.57,0.88,8
1.6,0.77,8
1.6,0.74,8
1.62,0.87,8
1.64,0.82,8
1.64,0.72,8
1.64,0.84,8
1.65,0.88,8
1.65,0.75,8
1.65,0.8,8
1.65,0.9,8
1.66,0.78,8
1.65,0.74,8
1.65,0.88,8
1.66,0.83,8
1.65,0.73,8
1.65,0.85,8
1.66,0.88,8
1.66,0.75,8
1.65,0.8,8
1.65,0.9,8
1.66,0.79,8
1.64,0.75,8
1.65,0.89,8
1.66,0.84,8
1.65,0.74,8
1.64,0.86,8
1.65,0.91,8
1.64,0.78,8
1.63,0.83,8
1.64,0.93,8
1.65,0.81,8
1.64,0.78,8
1.64,0.91,8
1.65,0.85,8
1.65,0.75,8
1.64,0.87,8
1.65,0.89,8
1.64,0.76,8
1.63,0.81,8
1.64,0.91,8
1.65,0.8,8
1.64,0.77,8
1.64,0.91,8
1.65,0.85,8
1.65,0.75,8
1.64,0.87,8
1.66,0.89,8
1.66,0.76,8
1.65,0.81,8
1.66,0.91,8
1.66,0.79,8
1.65,0.77,8
1.66,0.9,8
1.67,0.85,8
1.66,0.75,8
1.65,0.86,8
1.66,0.89,8
1.65,0.75,8
1.64,0.81,8
1.65,0.91,8
1.65,0.79,8
1.64,0.77,8
1.65,0.9,8
1.67,0.85,8
1.68,0.75,8
1.7,0.88,8
1.73,0.91,8
1.75,0.79,8
1.76,0.84,8
1.79,0.95,8
1.82,0.84,8
1.83,0.83,8
1.86,0.97,8
1.89,0.92,8
1.91,0.83,8
1.9,0.96,8
1.94,0.99,8
1.95,0.86,8
1.95,0.92,8
1.96,1.02,8
1.96,0.9,8
1.96,0.88,8
1.96,1.02,8
1.96,0.97,8
1.96,0.88,8
1.96,1.0,8
1.96,1.03,8
1.96,0.9,8
1.96,0.96,8
1.96,1.06,8
1.96,0.95,8
1.96,0.93,8
1.96,1.07,8
1.96,1.01,8
1.96,0.92,8
1.96,1.03,8
1.96,1.05,8
1.96,0.93,8
1.96,0.98,8
1.96,1.09,8
1.96,0.97,8
1.96,0.96,8
1.96,1.09,8
1.96,1.03,8
1.96,0.93,8
1.96,1.05,8
1.96,1.07,8
1.96,0.94,8
1.96,1.0,8
1.96,1.09,8
1.96,0.97,8
1.96,0.95,8
1.96,1.08,8
1.96,1.02,8
1.96,0.93,8
1.96,1.05,8
1.96,1.07,8
1.96,0.94,8
1.96,1.0,8
1.96,1.1,8
1.96,0.98,8
1.96,0.97,8
1.96,1.1,8
1.96,1.05,8
1.96,0.95,8
1.96,1.07,8
1.96,1.09,8
1.96,0.96,8
1.96,1.02,8
1.96,1.11,8
1.96,1.0,8
1.95,0.98,8
1.95,1.11,8
1.95,1.06,8
1.95,0.96,8
1.95,1.08,8
1.96,1.1,8
1.96,0.97,8
1.96,1.04,8
1.96,1.13,8
1.96,1.02,8
1.96,1.0,8
1.96,1.13,8
1.96,1.07,8
1.95,0.97,8
1.95,1.1,8
1.96,1.11,8
1.96,0.99,8
1.96,1.05,8
1.96,1.14,8
1.96,1.02,8
1.95,1.01,8
1.95,1.14,8
1.95,1.08,8
1.94,0.99,8
1.94,1.11,8
1.95,1.13,8
1.95,1.0,8
1.95,1.06,8
1.96,1.16,8
1.96,1.03,8
1.95,1.02,8
1.95,1.15,8
1.95,1.09,8
1.94,0.99,8
1.93,1.11,8
1.95,1.12,8
1.94,0.99,8
1.94,1.05,8
1.95,1.14,8
1.95,1.02,8
1.94,1.01,8
1.94,1.14,8
1.94,1.08,8
1.93,0.99,8
1.93,1.11,8
1.94,1.13,8
1.93,1.0,8
1.92,1.06,8
1.92,1.15,8
1.92,1.03,8
1.91,1.01,8
1.92,1.14,8
1.93,1.08,8
1.92,0.98,8
1.92,1.1,8
1.93,1.11,8
1.92,0.98,8
1.91,1.04,8
1.92,1.14,8
1.92,1.02,8
1.91,1.0,8
1.91,1.13,8
1.92,1.07,8
1.9,0.98,8
1.9,1.1,8
1.91,1.11,8
1.9,0.98,8
1.88,1.04,8
1.89,1.13,8
1.89,1.01,8
1.88,1.0,8
1.88,1.12,8
1.89,1.06,8
1.88,0.96,8
1.87,1.08,8
1.88,1.09,8
1.88,0.95,8
1.87,1.01,8
1.88,1.1,8
1.89,0.97,8
1.87,0.96,8
1.88,1.08,8
1.89,1.02,8
1.87,0.93,8
1.86,1.05,8
1.87,1.06,8
1.87,0.93,8
1.85,0.99,8
1.86,1.08,8
1.87,0.96,8
1.85,0.94,8
1.86,1.07,8
1.88,1.01,8
1.87,0.92,8
1.85,1.04,8
1.85,1.04,8
1.83,0.91,8
1.79,0.96,8
1.77,1.05,8
1.75,0.91,8
1.7,0.9,8
1.67,1.01,8
1.64,0.94,8
1.59,0.84,8
1.55,0.95,8
1.53,0.95,8
1.49,0.82,8
1.45,0.87,8
1.43,0.95,8
1.41,0.82,8
1.37,0.8,8
1.34,0.92,8
1.33,0.85,8
1.3,0.75,8
1.28,0.87,8
1.28,0.88,8
1.27,0.74,8
1.26,0.81,8
1.27,0.89,8
1.28,0.77,8
1.27,0.76,8
1.27,0.88,8
1.29,0.82,8
1.28,0.73,8
1.27,0.85,8
1.28,0.85,8
1.28,0.72,8
1.27,0.78,8
1.28,0.87,8
1.29,0.74,8
1.27,0.74,8
1.28,0.87,8
1.29,0.8,8
1.27,0.72,8
1.27,0.84,8
1.28,0.85,8
1.27,0.72,8
1.26,0.78,8
1.28,0.87,8
1.29,0.75,8
1.28,0.74,8
1.28,0.86,8
1.3,0.8,8
1.28,0.71,8
1.27,0.83,8
1.29,0.84,8
1.28,0.71,8
1.28,0.77,8
1.29,0.86,8
1.31,0.73,8
1.3,0.72,8
1.31,0.85,8
1.32,0.78,8
1.3,0.69,8
1.29,0.81,8
1.3,0.82,8
1.3,0.69,8
1.29,0.76,8
1.31,0.84,8
1.32,0.71,8
1.3,0.7,8
1.31,0.83,8
1.31,0.76,8
1.29,0.68,8
1.28,0.8,8
1.3,0.81,8
1.29,0.68,8
1.28,0.75,8
1.3,0.84,8
1.31,0.71,8
1.3,0.7,8
1.3,0.83,8
1.32,0.76,8
1.3,0.68,8
1.29,0.8,8
1.31,0.81,8
1.3,0.68,8
1.29,0.74,8
1.31,0.83,8
1.32,0.7,8
1.31,0.7,8
1.32,0.82,8
1.33,0.76,8
1.31,0.67,8
1.3,0.8,8
1.31,0.8,8
1.3,0.68,8
1.29,0.74,8
1.31,0.83,8
1.32,0.7,8
1.31,0.69,8
1.31,0.82,8
1.32,0.75,8
1.31,0.67,8
1.3,0.8,8
1.31,0.81,8
1.31,0.68,8
1.3,0.74,8
1.32,0.82,8
1.32,0.69,8
1.31,0.68,8
1.31,0.81,8
1.32,0.75,8
1.31,0.66,8
1.3,0.79,8
1.32,0.8,8
1.31,0.67,8
1.31,0.74,8
1.32,0.82,8
1.33,0.69,8
1.31,0.69,8
1.32,0.82,8
1.33,0.75,8
1.31,0.67,8
1.31,0.8,8
1.33,0.8,8
1.32,0.67,8
1.31,0.73,8
1.33,0.82,8
1.33,0.69,8
1.32,0.68,8
1.32,0.81,8
1.33,0.74,8
1.32,0.66,8
1.31,0.79,8
1.33,0.8,8
1.32,0.67,8
1.31,0.74,8
1.33,0.82,8
1.33,0.69,8
1.32,0.69,8
1.32,0.81,8
1.33,0.75,8
1.31,0.66,8
1.31,0.79,8
1.32,0.79,8
1.31,0.66,8
1.3,0.72,8
1.32,0.8,8
1.33,0.67,8
1.32,0.66,8
1.33,0.79,8
1.34,0.72,8
1.32,0.64,8
1.32,0.77,8
1.33,0.78,8
1.32,0.66,8
1.31,0.72,8
1.33,0.8,8
1.34,0.68,8
1.33,0.67,8
1.33,0.8,8
1.35,0.74,8
1.33,0.65,8
1.33,0.78,8
1.34,0.78,8
1.34,0.66,9
1.33,0.72,9
1.34,0.8,9
1.35,0.67,9
1.33,0.66,9
1.34,0.79,9
1.35,0.71,9
1.33,0.63,9
1.32,0.76,9
1.33,0.77,9
1.33,0.64,9
1.31,0.71,9
1.33,0.79,9
1.33,0.66,9
1.32,0.65,9
1.33,0.77,9
1.35,0.7,9
1.33,0.62,9
1.33,0.75,9
1.34,0.76,9
1.34,0.63,9
1.33,0.7,9
1.35,0.78,9
1.35,0.65,9
1.34,0.65,9
1.35,0.77,9
1.36,0.7,9
1.34,0.62,9
1.34,0.75,9
1.36,0.76,9
1.35,0.63,9
1.34,0.7,9
1.36,0.78,9
1.36,0.65,9
1.35,0.64,9
1.36,0.77,9
1.37,0.69,9
1.35,0.61,9
1.35,0.73,9
1.37,0.74,9
1.36,0.61,9
1.35,0.69,9
1.37,0.76,9
1.37,0.63,9
1.37,0.63,9
1.38,0.75,9
1.39,0.68,9
1.38,0.6,9
1.38,0.73,9
1.39,0.74,9
1.39,0.61,9
1.38,0.69,9
1.39,0.76,9
1.39,0.64,9
1.38,0.63,9
1.38,0.76,9
1.39,0.68,9
1.37,0.61,9
1.36,0.73,9
1.37,0.74,9
1.37,0.62,9
1.36,0.69,9
1.38,0.76,9
1.38,0.64,9
1.37,0.63,9
1.37,0.75,9
1.38,0.68,9
1.37,0.6,9
1.36,0.73,9
1.38,0.74,9
1.38,0.62,9
1.37,0.69,9
1.38,0.76,9
1.39,0.63,9
1.38,0.62,9
1.39,0.74,9
1.4,0.67,9
1.38,0.6,9
1.38,0.73,9
1.39,0.74,9
1.38,0.62,9
1.37,0.7,9
1.39,0.77,9
1.39,0.65,9
1.38,0.65,9
1.38,0.78,9
1.4,0.7,9
1.38,0.63,9
1.38,0.77,9
1.39,0.76,9
1.39,0.64,9
1.38,0.72,9
1.41,0.79,9
1.41,0.67,9
1.4,0.67,9
1.4,0.8,9
1.42,0.72,9
1.4,0.65,9
1.4,0.78,9
1.41,0.77,9
1.41,0.65,9
1.4,0.73,9
1.41,0.81,9
1.42,0.68,9
1.4,0.69,9
1.41,0.81,9
1.42,0.74,9
1.4,0.66,9
1.4,0.8,9
1.41,0.8,9
1.4,0.68,9
1.39,0.76,9
1.41,0.83,9
1.41,0.7,9
1.4,0.71,9
1.41,0.83,9
1.42,0.76,9
1.4,0.69,9
1.4,0.83,9
1.41,0.82,9
1.4,0.71,9
1.39,0.78,9
1.4,0.85,9
1.4,0.72,9
1.39,0.73,9
1.4,0.85,9
1.41,0.78,9
1.39,0.71,9
1.4,0.84,9
1.41,0.84,9
1.41,0.72,9
1.4,0.79,9
1.42,0.87,9
1.42,0.74,9
1.41,0.75,9
1.41,0.88,9
1.42,0.81,9
1.41,0.74,9
1.41,0.87,9
1.42,0.87,9
1.42,0.75,9
1.41,0.83,9
1.43,0.91,9
1.43,0.78,9
1.42,0.79,9
1.43,0.92,9
1.45,0.85,9
1.43,0.78,9
1.43,0.91,9
1.44,0.91,9
1.44,0.79,9
1.42,0.87,9
1.44,0.94,9
1.44,0.81,9
1.42,0.82,9
1.43,0.95,9
1.44,0.88,9
1.42,0.81,9
1.42,0.94,9
1.43,0.94,9
1.43,0.82,9
1.42,0.9,9
1.44,0.97,9
1.44,0.84,9
1.43,0.85,9
1.44,0.97,9
1.46,0.89,9
1.44,0.82,9
1.45,0.95,9
1.46,0.95,9
1.46,0.83,9
1.45,0.91,9
1.46,0.98,9
1.47,0.85,9
1.46,0.86,9
1.46,0.99,9
1.48,0.91,9
1.46,0.84,9
1.47,0.98,9
1.48,0.97,9
1.48,0.85,9
1.47,0.94,9
1.49,1.01,9
1.49,0.88,9
1.48,0.89,9
1.49,1.01,9
1.51,0.93,9
1.49,0.87,9
1.49,1.0,9
1.5,0.99,9
1.5,0.87,9
1.48,0.95,9
1.5,1.02,9
1.5,0.89,9
1.48,0.91,9
1.48,1.03,9
1.49,0.95,9
1.47,0.89,9
1.47,1.02,9
1.47,1.01,9
1.47,0.89,9
1.45,0.97,9
1.47,1.04,9
1.47,0.91,9
1.46,0.93,9
1.47,1.05,9
1.48,0.97,9
1.46,0.9,9
1.46,1.03,9
1.47,1.02,9
1.46,0.9,9
1.46,0.98,9
1.47,1.05,9
1.47,0.92,9
1.46,0.93,9
1.47,1.05,9
1.48,0.97,9
1.46,0.9,9
1.46,1.03,9
1.48,1.03,9
1.48,0.91,9
1.46,0.99,9
1.48,1.06,9
1.49,0.94,9
1.48,0.95,9
1.48,1.07,9
1.5,0.99,9
1.49,0.92,9
1.5,1.05,9
1.51,1.03,9
1.51,0.91,9
1.49,0.99,9
1.51,1.07,9
1.51,0.94,9
1.5,0.95,9
1.5,1.07,9
1.52,0.98,9
1.5,0.91,9
1.5,1.04,9
1.52,1.03,9
1.51,0.91,9
1.5,0.99,9
1.51,1.06,9
1.52,0.93,9
1.5,0.94,9
1.51,1.06,9
1.52,0.98,9
1.51,0.91,9
1.51,1.04,9
1.53,1.02,9
1.53,0.91,9
1.52,0.99,9
1.54,1.07,9
1.54,0.94,9
1.53,0.95,9
1.53,1.07,9
1.54,0.99,9
1.53,0.91,9
1.53,1.05,9
1.54,1.03,9
1.54,0.91,9
1.53,1.0,9
1.54,1.07,9
1.54,0.94,9
1.53,0.95,9
1.53,1.07,9
1.55,0.98,9
1.53,0.92,9
1.53,1.06,9
1.55,1.04,9
1.55,0.92,9
1.53,1.01,9
1.55,1.07,9
1.55,0.94,9
1.54,0.96,9
1.55,1.08,9
1.57,0.99,9
1.56,0.92,9
1.56,1.05,9
1.58,1.03,9
1.57,0.91,9
1.56,0.99,9
1.57,1.07,9
1.58,0.93,9
1.56,0.95,9
1.57,1.07,9
1.58,0.99,9
1.57,0.92,9
1.57,1.05,9
1.59,1.04,9
1.59,0.92,9
1.57,1.0,9
1.59,1.07,9
1.59,0.94,9
1.57,0.95,9
1.58,1.07,9
1.59,0.99,9
1.58,0.91,9
1.58,1.04,9
1.59,1.02,9
1.59,0.9,9
1.58,0.99,9
1.59,1.06,9
1.6,0.93,9
1.58,0.94,9
1.59,1.06,9
1.6,0.97,9
1.59,0.9,9
1.58,1.03,9
1.6,1.01,9
1.59,0.89,9
1.58,0.98,9
1.59,1.05,9
1.6,0.91,9
1.59,0.93,9
1.59,1.04,9
1.61,0.96,9
1.6,0.89,9
1.6,1.02,9
1.61,1.0,9
1.61,0.88,9
1.59,0.97,9
1.61,1.03,9
1.61,0.9,9
1.6,0.92,9
1.61,1.04,9
1.63,0.95,9
1.61,0.88,9
1.62,1.02,9
1.63,1.0,9
1.63,0.88,9
1.61,0.97,9
1.63,1.04,9
1.63,0.91,9
1.62,0.93,9
1.62,1.05,9
1.64,0.96,9
1.62,0.89,9
1.62,1.02,9
1.63,1.01,9
1.63,0.89,9
1.62,0.98,9
1.64,1.04,9
1.64,0.91,9
1.63,0.93,9
1.63,1.05,9
1.64,0.96,9
1.62,0.89,9
1.62,1.03,9
1.63,1.0,9
1.63,0.88,9
1.62,0.97,9
1.64,1.04,9
1.64,0.9,9
1.62,0.92,9
1.63,1.04,9
1.65,0.95,9
1.63,0.88,9
1.64,1.02,9
1.65,1.0,9
1.65,0.88,9
1.63,0.96,9
1.65,1.03,9
1.65,0.89,9
1.64,0.91,9
1.65,1.03,9
1.67,0.93,9
1.66,0.87,9
1.66,1.0,9
1.68,0.98,9
1.68,0.87,9
1.66,0.95,9
1.68,1.01,9
1.69,0.88,9
1.67,0.9,9
1.68,1.01,9
1.7,0.92,9
1.68,0.86,9
1.68,0.99,9
1.69,0.97,9
1.69,0.85,9
1.67,0.94,9
1.69,0.99,9
1.69,0.86,9
1.68,0.87,9
1.69,0.99,9
1.71,0.91,9
1.7,0.85,9
1.72,0.99,9
1.75,0.97,9
1.77,0.86,9
1.78,0.95,9
1.82,1.01,9
1.84,0.89,9
1.86,0.91,9
1.89,1.03,9
1.91,0.95,9
1.92,0.88,9
1.92,1.02,9
1.94,1.0,9
1.95,0.89,9
1.95,0.99,9
1.96,1.06,9
1.96,0.93,9
1.96,0.96,9
1.96,1.08,9
1.96,0.99,9
1.96,0.94,9
1.96,1.07,9
1.96,1.05,9
1.96,0.94,9
1.96,1.03,9
1.96,1.09,9
1.96,0.96,9
1.96,0.99,9
1.96,1.1,9
1.96,1.01,9
1.96,0.96,9
1.96,1.09,9
1.96,1.07,9
1.96,0.95,9
1.96,1.04,9
1.96,1.1,9
1.96,0.96,9
1.96,0.98,9
1.96,1.09,9
1.96,1.0,9
1.96,0.95,9
1.96,1.08,9
1.96,1.06,9
1.96,0.94,9
1.96,1.03,9
1.96,1.08,9
1.96,0.95,9
1.96,0.97,9
1.96,1.08,9
1.96,0.99,9
1.96,0.93,9
1.96,1.06,9
1.96,1.03,9
1.96,0.91,9
1.96,1.0,9
1.96,1.05,9
1.96,0.92,9
1.96,0.94,9
1.96,1.05,9
1.96,0.95,9
1.96,0.89,9
1.96,1.02,9
1.96,1.0,9
1.96,0.88,9
1.96,0.97,9
1.96,1.03,9
1.96,0.89,9
1.96,0.92,9
1.96,1.03,9
1.96,0.93,9
1.96,0.87,9
1.96,1.0,9
1.96,0.98,9
1.96,0.86,9
1.96,0.95,9
1.96,1.01,9
1.96,0.87,9
1.96,0.89,9
1.96,1.01,9
1.96,0.92,9
1.96,0.86,9
1.96,0.99,9
1.96,0.96,9
1.96,0.83,9
1.96,0.92,9
1.96,0.98,9
1.96,0.84,9
1.96,0.86,9
1.96,0.98,9
1.96,0.88,9
1.96,0.83,9
1.96,0.96,9
1.96,0.93,9
1.96,0.81,9
1.96,0.9,9
1.96,0.95,9
1.96,0.82,9
1.96,0.84,9
1.96,0.96,9
1.96,0.86,9
1.96,0.8,9
1.96,0.93,9
1.96,0.91,9
1.96,0.79,9
1.96,0.88,9
1.96,0.94,9
1.96,0.8,9
1.96,0.82,9
1.96,0.94,9
1.96,0.85,9
1.96,0.79,9
1.96,0.92,9
1.96,0.89,9
1.96,0.77,9
1.96,0.86,9
1.96,0.91,9
1.96,0.78,9
1.95,0.8,9
1.95,0.92,9
1.95,0.83,9
1.94,0.77,9
1.94,0.9,9
1.95,0.87,9
1.95,0.75,9
1.95,0.84,9
1.96,0.89,9
1.96,0.76,9
1.95,0.78,9
1.95,0.89,9
1.95,0.79,9
1.93,0.74,9
1.93,0.87,9
1.94,0.84,9
1.93,0.73,9
1.93,0.83,9
1.94,0.88,9
1.94,0.74,9
1.93,0.76,9
1.93,0.88,9
1.93,0.78,9
1.92,0.72,9
1.92,0.86,9
1.92,0.83,9
1.92,0.71,9
1.91,0.81,9
1.93,0.86,9
1.93,0.72,9
1.91,0.74,9
1.92,0.86,9
1.92,0.76,9
1.9,0.71,9
1.9,0.84,9
1.91,0.82,9
1.9,0.7,9
1.89,0.79,9
1.9,0.84,9
1.89,0.71,9
1.88,0.73,9
1.88,0.85,9
1.89,0.75,9
1.88,0.69,9
1.87,0.82,9
1.87,0.79,9
1.85,0.68,9
1.81,0.77,9
1.79,0.82,9
1.75,0.68,9
1.7,0.7,9
1.67,0.81,9
1.64,0.71,9
1.58,0.65,9
1.55,0.78,9
1.52,0.74,9
1.48,0.62,9
1.43,0.71,9
1.42,0.75,9
1.38,0.61,9
1.35,0.63,9
1.33,0.73,9
1.32,0.62,9
1.29,0.56,9
1.28,0.68,9
1.28,0.65,9
1.27,0.53,9
1.25,0.62,9
1.26,0.67,9
1.26,0.54,9
1.24,0.56,9
1.25,0.67,9
1.26,0.57,9
1.25,0.52,9
1.25,0.65,9
1.27,0.62,9
1.27,0.51,9
1.25,0.6,9
1.27,0.65,9
1.27,0.52,9
1.25,0.55,9
1.25,0.66,9
1.27,0.55,9
1.25,0.51,9
1.25,0.64,9
1.27,0.61,9
1.26,0.5,9
1.25,0.59,9
1.26,0.64,9
1.25,0.5,9
1.24,0.52,9
1.24,0.63,9
1.26,0.53,9
1.26,0.48,9
1.26,0.61,9
1.28,0.59,9
1.27,0.48,9
1.25,0.58,9
1.26,0.62,9
1.25,0.49,9
1.23,0.51,9
1.24,0.62,9
1.25,0.52,9
1.23,0.47,9
1.24,0.61,9
1.25,0.58,9
1.25,0.47,9
1.24,0.58,9
1.25,0.62,9
1.25,0.49,9
1.23,0.51,9
1.23,0.62,9
1.25,0.52,9
1.23,0.47,9
1.23,0.61,9
1.25,0.58,9
1.24,0.47,9
1.22,0.57,9
1.24,0.61,9
1.24,0.48,9
1.23,0.51,9
1.23,0.62,9
1.25,0.51,9
1.23,0.47,9
1.24,0.6,9
1.25,0.57,9
1.25,0.46,9
1.24,0.57,9
1.25,0.61,9
1.25,0.48,9
1.24,0.51,9
1.24,0.62,9
1.26,0.52,9
1.25,0.47,9
1.26,0.6,9
1.27,0.58,9
1.27,0.47,9
1.25,0.57,9
1.27,0.61,9
1.27,0.48,9
1.25,0.5,9
1.26,0.61,9
1.27,0.51,9
1.26,0.47,9
1.25,0.6,9
1.27,0.58,9
1.26,0.47,9
1.25,0.57,9
1.27,0.62,9
1.26,0.48,9
1.25,0.51,9
1.25,0.62,9
1.27,0.52,9
1.26,0.48,9
1.26,0.61,9
1.28,0.58,9
1.28,0.47,9
1.27,0.58,9
1.28,0.62,9
1.28,0.49,9
1.27,0.51,9
1.27,0.62,9
1.29,0.52,9
1.28,0.47,9
1.28,0.6,9
1.29,0.57,9
1.29,0.47,9
1.28,0.57,9
1.3,0.61,9
1.29,0.48,9
1.29,0.52,9
1.29,0.63,9
1.3,0.52,9
1.29,0.48,9
1.3,0.62,9
1.31,0.58,9
1.31,0.48,9
1.3,0.59,9
1.31,0.63,9
1.31,0.5,9
1.3,0.53,9
1.31,0.65,9
1.32,0.54,9
1.3,0.5,9
1.31,0.64,9
1.32,0.6,9
1.31,0.5,9
1.3,0.6,9
1.31,0.64,9
1.31,0.51,9
1.3,0.54,9
1.31,0.65,9
1.33,0.55,9
1.31,0.51,10
1.31,0.64,10
1.32,0.61,10
1.32,0.5,10
1.31,0.61,10
1.33,0.65,10
1.33,0.52,10
1.32,0.56,10
1.33,0.67,10
1.34,0.57,10
1.33,0.53,10
1.33,0.66,10
1.34,0.63,10
1.34,0.52,10
1.32,0.63,10
1.34,0.67,10
1.34,0.54,10
1.33,0.58,10
1.33,0.69,10
1.34,0.58,10
1.33,0.55,10
1.34,0.68,10
1.35,0.64,10
1.34,0.54,10
1.32,0.65,10
1.33,0.69,10
1.33,0.56,10
1.32,0.6,10
1.32,0.71,10
1.34,0.6,10
1.33,0.56,10
1.34,0.7,10
1.35,0.66,10
1.34,0.56,10
1.33,0.67,10
1.34,0.71,10
1.34,0.58,10
1.33,0.62,10
1.33,0.73,10
1.34,0.62,10
1.33,0.59,10
1.33,0.73,10
1.34,0.69,10
1.34,0.59,10
1.32,0.7,10
1.34,0.74,10
1.33,0.6,10
1.32,0.64,10
1.33,0.75,10
1.34,0.64,10
1.33,0.61,10
1.33,0.74,10
1.34,0.71,10
1.34,0.6,10
1.33,0.71,10
1.34,0.75,10
1.33,0.62,10
1.33,0.66,10
1.33,0.77,10
1.35,0.66,10
1.34,0.63,10
1.34,0.76,10
1.35,0.72,10
1.35,0.61,10
1.34,0.72,10
1.36,0.75,10
1.36,0.62,10
1.35,0.66,10
1.36,0.77,10
1.37,0.66,10
1.36,0.63,10
1.36,0.76,10
1.37,0.72,10
1.37,0.61,10
1.36,0.72,10
1.37,0.76,10
1.37,0.64,10
1.36,0.68,10
1.36,0.79,10
1.38,0.68,10
1.36,0.64,10
1.37,0.78,10
1.38,0.74,10
1.37,0.63,10
1.36,0.74,10
1.37,0.78,10
1.37,0.65,10
1.37,0.69,10
1.37,0.8,10
1.39,0.69,10
1.38,0.66,10
1.38,0.79,10
1.39,0.75,10
1.39,0.65,10
1.37,0.76,10
1.39,0.8,10
1.38,0.66,10
1.37,0.7,10
1.38,0.81,10
1.39,0.7,10
1.38,0.67,10
1.38,0.8,10
1.39,0.76,10
1.38,0.65,10
1.37,0.76,10
1.38,0.79,10
1.38,0.66,10
1.38,0.7,10
1.39,0.81,10
1.4,0.7,10
1.39,0.66,10
1.4,0.8,10
1.4,0.76,10
1.39,0.65,10
1.37,0.76,10
1.38,0.79,10
1.38,0.66,10
1.38,0.7,10
1.39,0.81,10
1.41,0.7,10
1.4,0.66,10
1.4,0.79,10
1.41,0.75,10
1.41,0.65,10
1.39,0.75,10
1.4,0.79,10
1.4,0.66,10
1.39,0.7,10
1.4,0.81,10
1.41,0.69,10
1.4,0.66,10
1.41,0.79,10
1.42,0.75,10
1.41,0.64,10
1.4,0.75,10
1.41,0.79,10
1.41,0.66,10
1.4,0.7,10
1.41,0.8,10
1.43,0.69,10
1.42,0.66,10
1.42,0.79,10
1.43,0.75,10
1.43,0.65,10
1.41,0.76,10
1.42,0.79,10
1.42,0.66,10
1.41,0.7,10
1.42,0.8,10
1.43,0.69,10
1.42,0.65,10
1.42,0.79,10
1.43,0.74,10
1.42,0.64,10
1.41,0.75,10
1.42,0.78,10
1.42,0.64,10
1.42,0.68,10
1.42,0.79,10
1.44,0.68,10
1.43,0.65,10
1.43,0.78,10
1.45,0.74,10
1.45,0.63,10
1.43,0.75,10
1.45,0.78,10
1.45,0.65,10
1.44,0.69,10
1.45,0.8,10
1.47,0.68,10
1.46,0.64,10
1.46,0.77,10
1.47,0.73,10
1.47,0.62,10
1.46,0.73,10
1.47,0.76,10
1.47,0.63,10
1.46,0.67,10
1.46,0.78,10
1.47,0.67,10
1.45,0.63,10
1.45,0.76,10
1.46,0.72,10
1.46,0.61,10
1.45,0.72,10
1.46,0.75,10
1.46,0.62,10
1.45,0.66,10
1.45,0.76,10
1.47,0.65,10
1.46,0.62,10
1.47,0.75,10
1.48,0.71,10
1.47,0.6,10
1.46,0.72,10
1.47,0.75,10
1.47,0.62,10
1.46,0.66,10
1.46,0.76,10
1.48,0.65,10
1.46,0.62,10
1.47,0.75,10
1.48,0.71,10
1.48,0.6,10
1.47,0.71,10
1.48,0.74,10
1.48,0.61,10
1.47,0.65,10
1.47,0.75,10
1.48,0.64,10
1.47,0.61,10
1.48,0.74,10
1.49,0.7,10
1.48,0.6,10
1.47,0.71,10
1.48,0.74,10
1.48,0.61,10
1.47,0.65,10
1.48,0.76,10
1.49,0.64,10
1.48,0.61,10
1.48,0.74,10
1.49,0.7,10
1.48,0.6,10
1.47,0.71,10
1.48,0.74,10
1.48,0.6,10
1.47,0.64,10
1.48,0.75,10
1.49,0.64,10
1.48,0.61,10
1.48,0.74,10
1.49,0.7,10
1.49,0.59,10
1.47,0.7,10
1.49,0.73,10
1.49,0.6,10
1.48,0.65,10
1.48,0.75,10
1.49,0.64,10
1.48,0.61,10
1.49,0.74,10
1.5,0.7,10
1.49,0.59,10
1.47,0.71,10
1.49,0.74,10
1.48,0.6,10
1.47,0.64,10
1.48,0.74,10
1.49,0.63,10
1.48,0.6,10
1.49,0.73,10
1.5,0.69,10
1.49,0.58,10
1.48,0.69,10
1.49,0.72,10
1.49,0.59,10
1.48,0.63,10
1.49,0.73,10
1.5,0.62,10
1.49,0.59,10
1.49,0.72,10
1.5,0.67,10
1.49,0.57,10
1.48,0.69,10
1.49,0.72,10
1.49,0.59,10
1.48,0.64,10
1.48,0.74,10
1.5,0.63,10
1.48,0.6,10
1.49,0.72,10
1.5,0.68,10
1.49,0.57,10
1.48,0.69,10
1.49,0.72,10
1.48,0.59,10
1.47,0.63,10
1.48,0.73,10
1.49,0.62,10
1.47,0.59,10
1.48,0.72,10
1.48,0.67,10
1.48,0.57,10
1.47,0.68,10
1.48,0.71,10
1.48,0.57,10
1.47,0.61,10
1.48,0.71,10
1.49,0.6,10
1.48,0.56,10
1.48,0.69,10
1.48,0.65,10
1.48,0.54,10
1.47,0.66,10
1.48,0.69,10
1.48,0.56,10
1.47,0.6,10
1.47,0.71,10
1.48,0.59,10
1.46,0.56,10
1.47,0.69,10
1.48,0.64,10
1.48,0.54,10
1.47,0.65,10
1.48,0.67,10
1.48,0.54,10
1.47,0.59,10
1.48,0.69,10
1.49,0.57,10
1.47,0.54,10
1.48,0.67,10
1.49,0.62,10
1.49,0.52,10
1.48,0.64,10
1.49,0.66,10
1.48,0.53,10
1.47,0.58,10
1.48,0.67,10
1.49,0.56,10
1.47,0.53,10
1.48,0.66,10
1.49,0.61,10
1.48,0.51,10
1.47,0.62,10
1.48,0.64,10
1.48,0.51,10
1.47,0.56,10
1.48,0.66,10
1.5,0.55,10
1.49,0.52,10
1.49,0.65,10
1.5,0.6,10
1.49,0.5,10
1.48,0.61,10
1.49,0.64,10
1.49,0.51,10
1.48,0.56,10
1.48,0.66,10
1.49,0.54,10
1.48,0.52,10
1.49,0.65,10
1.5,0.59,10
1.5,0.49,10
1.48,0.61,10
1.48,0.63,10
1.49,0.5,10
1.48,0.56,10
1.5,0.66,10
1.53,0.55,10
1.55,0.53,10
1.57,0.66,10
1.61,0.61,10
1.63,0.51,10
1.64,0.62,10
1.68,0.65,10
1.7,0.52,10
1.72,0.58,10
1.75,0.69,10
1.78,0.58,10
1.79,0.56,10
1.81,0.69,10
1.84,0.65,10
1.85,0.56,10
1.85,0.68,10
1.87,0.71,10
1.88,0.59,10
1.88,0.65,10
1.9,0.75,10
1.91,0.64,10
1.91,0.63,10
1.92,0.76,10
1.93,0.72,10
1.94,0.63,10
1.94,0.75,10
1.96,0.78,10
1.96,0.66,10
1.96,0.71,10
1.96,0.82,10
1.96,0.7,10
1.95,0.68,10
1.95,0.81,10
1.95,0.76,10
1.95,0.66,10
1.95,0.78,10
1.96,0.81,10
1.96,0.68,10
1.95,0.74,10
1.95,0.84,10
1.95,0.72,10
1.94,0.7,10
1.94,0.83,10
1.94,0.78,10
1.94,0.69,10
1.93,0.81,10
1.95,0.84,10
1.94,0.71,10
1.93,0.76,10
1.93,0.86,10
1.93,0.74,10
1.92,0.72,10
1.92,0.85,10
1.93,0.8,10
1.93,0.7,10
1.93,0.83,10
1.94,0.86,10
1.94,0.73,10
1.93,0.78,10
1.94,0.89,10
1.94,0.78,10
1.93,0.76,10
1.93,0.9,10
1.94,0.85,10
1.93,0.75,10
1.93,0.88,10
1.94,0.91,10
1.93,0.78,10
1.92,0.84,10
1.92,0.94,10
1.92,0.83,10
1.91,0.81,10
1.91,0.94,10
1.92,0.89,10
1.92,0.8,10
1.92,0.92,10
1.93,0.94,10
1.92,0.82,10
1.91,0.87,10
1.91,0.98,10
1.91,0.86,10
1.9,0.84,10
1.9,0.98,10
1.91,0.93,10
1.9,0.84,10
1.9,0.96,10
1.91,0.99,10
1.91,0.86,10
1.9,0.92,10
1.91,1.02,10
1.91,0.9,10
1.89,0.88,10
1.9,1.02,10
1.91,0.97,10
1.9,0.88,10
1.9,1.0,10
1.91,1.02,10
1.91,0.89,10
1.89,0.95,10
1.89,1.05,10
1.9,0.95,10
1.88,0.93,10
1.88,1.07,10
1.89,1.02,10
1.88,0.92,10
1.88,1.04,10
1.89,1.06,10
1.88,0.94,10
1.87,0.99,10
1.88,1.1,10
1.88,0.99,10
1.87,0.97,10
1.88,1.11,10
1.89,1.06,10
1.88,0.96,10
1.87,1.08,10
1.88,1.11,10
1.87,0.98,10
1.86,1.03,10
1.86,1.13,10
1.87,1.01,10
1.86,1.0,10
1.86,1.13,10
1.87,1.08,10
1.86,0.99,10
1.85,1.11,10
1.86,1.14,10
1.86,1.01,10
1.85,1.07,10
1.85,1.17,10
1.86,1.05,10
1.85,1.04,10
1.85,1.18,10
1.86,1.12,10
1.85,1.02,10
1.84,1.15,10
1.86,1.17,10
1.86,1.04,10
1.85,1.1,10
1.85,1.2,10
1.86,1.08,10
1.85,1.06,10
1.86,1.19,10
1.87,1.14,10
1.86,1.04,10
1.85,1.16,10
1.86,1.18,10
1.85,1.05,10
1.84,1.11,10
1.85,1.21,10
1.86,1.1,10
1.84,1.08,10
1.86,1.22,10
1.87,1.16,10
1.85,1.06,10
1.83,1.17,10
1.82,1.19,10
1.78,1.06,10
1.73,1.11,10
1.7,1.21,10
1.68,1.09,10
1.62,1.06,10
1.59,1.19,10
1.56,1.13,10
1.51,1.02,10
1.46,1.13,10
1.45,1.14,10
1.41,1.0,10
1.37,1.05,10
1.36,1.14,10
1.35,1.02,10
1.32,0.99,10
1.3,1.12,10
1.3,1.06,10
1.29,0.96,10
1.28,1.08,10
1.29,1.1,10
1.29,0.97,10
1.29,1.03,10
1.3,1.13,10
1.32,1.01,10
1.31,0.99,10
1.32,1.12,10
1.33,1.06,10
1.32,0.97,10
1.31,1.08,10
1.33,1.1,10
1.33,0.97,10
1.31,1.03,10
1.32,1.13,10
1.33,1.01,10
1.32,0.99,10
1.32,1.12,10
1.33,1.06,10
1.32,0.96,10
1.31,1.08,10
1.32,1.1,10
1.32,0.96,10
1.3,1.02,10
1.31,1.11,10
1.32,0.99,10
1.31,0.97,10
1.31,1.1,10
1.32,1.04,10
1.31,0.94,10
1.3,1.06,10
1.31,1.08,10
1.31,0.95,10
1.3,1.0,10
1.31,1.1,10
1.32,0.99,10
1.31,0.97,10
1.31,1.09,10
1.32,1.03,10
1.3,0.93,10
1.29,1.04,10
1.31,1.06,10
1.31,0.93,10
1.3,0.98,10
1.31,1.08,10
1.32,0.97,10
1.31,0.95,10
1.32,1.08,10
1.33,1.03,10
1.33,0.93,10
1.32,1.04,10
1.33,1.05,10
1.33,0.92,10
1.32,0.98,10
1.32,1.08,10
1.33,0.96,10
1.32,0.94,10
1.32,1.07,10
1.33,1.01,10
1.33,0.91,10
1.32,1.02,10
1.34,1.04,10
1.34,0.9,10
1.33,0.96,10
1.34,1.06,10
1.35,0.94,10
1.34,0.92,10
1.34,1.05,10
1.36,0.99,10
1.35,0.89,10
1.34,1.01,10
1.35,1.03,10
1.35,0.89,10
1.33,0.95,10
1.34,1.05,10
1.35,0.92,10
1.34,0.9,10
1.34,1.03,10
1.35,0.97,10
1.34,0.87,10
1.33,0.99,10
1.34,1.01,10
1.34,0.88,10
1.32,0.93,10
1.34,1.03,10
1.35,0.91,10
1.34,0.89,10
1.34,1.02,10
1.35,0.96,10
1.34,0.86,10
1.33,0.98,10
1.35,1.0,10
1.34,0.87,10
1.33,0.93,10
1.34,1.02,10
1.35,0.89,10
1.34,0.87,10
1.34,1.0,10
1.35,0.94,10
1.35,0.85,10
1.34,0.97,10
1.35,0.98,10
1.35,0.85,10
1.34,0.9,10
1.36,0.99,10
1.37,0.87,10
1.36,0.85,10
1.36,0.98,10
1.38,0.93,10
1.37,0.83,10
1.36,0.95,10
1.37,0.97,10
1.36,0.84,10
1.35,0.89,10
1.36,0.99,10
1.37,0.87,10
1.35,0.85,10
1.35,0.97,10
1.36,0.92,10
1.35,0.82,10
1.34,0.94,10
1.35,0.96,10
1.34,0.83,10
1.33,0.88,10
1.33,0.97,10
1.34,0.85,10
1.32,0.83,10
1.33,0.96,10
1.33,0.91,10
1.32,0.81,10
1.31,0.93,10
1.33,0.94,10
1.33,0.81,10
1.32,0.86,10
1.32,0.95,10
1.33,0.82,10
1.32,0.8,10
1.32,0.93,10
1.33,0.88,10
1.33,0.78,10
1.32,0.89,10
1.33,0.91,10
1.33,0.78,10
1.32,0.83,11
1.33,0.93,11
1.34,0.8,11
1.33,0.78,11
1.33,0.91,11
1.35,0.85,11
1.34,0.75,11
1.33,0.87,11
1.33,0.88,11
1.33,0.75,11
1.32,0.81,11
1.32,0.9,11
1.33,0.77,11
1.32,0.74,11
1.32,0.86,11
1.34,0.8,11
1.33,0.7,11
1.32,0.82,11
1.34,0.84,11
1.33,0.71,11
1.32,0.77,11
1.33,0.86,11
1.34,0.74,11
1.33,0.71,11
1.33,0.83,11
1.35,0.77,11
1.34,0.67,11
1.33,0.79,11
1.34,0.81,11
1.34,0.68,11
1.33,0.73,11
1.34,0.83,11
1.34,0.7,11
1.33,0.68,11
1.33,0.81,11
1.35,0.75,11
1.34,0.65,11
1.33,0.77,11
1.35,0.79,11
1.34,0.66,11
1.33,0.71,11
1.34,0.81,11
1.35,0.68,11
1.34,0.66,11
1.34,0.79,11
1.36,0.74,11
1.35,0.64,11
1.33,0.76,11
1.34,0.77,11
1.34,0.64,11
1.33,0.69,11
1.33,0.79,11
1.34,0.66,11
1.33,0.65,11
1.34,0.77,11
1.35,0.72,11
1.34,0.62,11
1.33,0.74,11
1.34,0.75,11
1.34,0.61,11
1.33,0.66,11
1.35,0.75,11
1.36,0.62,11
1.35,0.6,11
1.35,0.72,11
1.36,0.66,11
1.35,0.56,11
1.34,0.68,11
1.35,0.69,11
1.35,0.56,11
1.33,0.61,11
1.34,0.7,11
1.35,0.58,11
1.34,0.57,11
1.35,0.7,11
1.36,0.64,11
1.35,0.54,11
1.34,0.66,11
1.35,0.67,11
1.35,0.54,11
1.34,0.59,11
1.35,0.69,11
1.36,0.57,11
1.34,0.55,11
1.35,0.68,11
1.36,0.62,11
1.35,0.52,11
1.34,0.64,11
1.35,0.66,11
1.35,0.53,11
1.34,0.58,11
1.35,0.67,11
1.36,0.54,11
1.35,0.52,11
1.35,0.65,11
1.37,0.59,11
1.35,0.49,11
1.34,0.61,11
1.36,0.63,11
1.35,0.5,11
1.34,0.55,11
1.35,0.64,11
1.35,0.52,11
1.34,0.5,11
1.34,0.63,11
1.35,0.58,11
1.34,0.48,11
1.33,0.59,11
1.34,0.61,11
1.33,0.48,11
1.32,0.53,11
1.33,0.62,11
1.33,0.5,11
1.32,0.48,11
1.32,0.6,11
1.33,0.54,11
1.32,0.44,11
1.31,0.56,11
1.32,0.58,11
1.32,0.46,11
1.3,0.51,11
1.31,0.6,11
1.32,0.48,11
1.31,0.46,11
1.31,0.58,11
1.32,0.53,11
1.31,0.43,11
1.3,0.55,11
1.31,0.56,11
1.31,0.44,11
1.3,0.49,11
1.31,0.59,11
1.32,0.47,11
1.31,0.45,11
1.31,0.57,11
1.33,0.52,11
1.32,0.42,11
1.31,0.54,11
1.32,0.55,11
1.31,0.43,11
1.3,0.48,11
1.31,0.57,11
1.32,0.45,11
1.31,0.44,11
1.31,0.56,11
1.32,0.51,11
1.31,0.41,11
1.3,0.53,11
1.31,0.54,11
1.3,0.41,11
1.3,0.45,11
1.3,0.55,11
1.31,0.42,11
1.3,0.4,11
1.3,0.53,11
1.31,0.48,11
1.31,0.38,11
1.3,0.5,11
1.32,0.52,11
1.31,0.39,11
1.3,0.44,11
1.31,0.54,11
1.32,0.42,11
1.3,0.4,11
1.31,0.53,11
1.32,0.48,11
1.31,0.38,11
1.3,0.5,11
1.32,0.52,11
1.31,0.39,11
1.3,0.44,11
1.31,0.53,11
1.32,0.41,11
1.31,0.39,11
1.31,0.52,11
1.32,0.47,11
1.31,0.37,11
1.31,0.49,11
1.32,0.51,11
1.31,0.38,11
1.3,0.43,11
1.31,0.52,11
1.32,0.4,11
1.3,0.39,11
1.3,0.52,11
1.32,0.46,11
1.31,0.37,11
1.3,0.49,11
1.31,0.5,11
1.3,0.38,11
1.29,0.43,11
1.3,0.52,11
1.31,0.4,11
1.3,0.39,11
1.3,0.51,11
1.31,0.46,11
1.31,0.36,11
1.3,0.48,11
1.32,0.49,11
1.31,0.37,11
1.31,0.43,11
1.32,0.52,11
1.33,0.4,11
1.31,0.38,11
1.32,0.5,11
1.33,0.44,11
1.32,0.35,11
1.31,0.47,11
1.32,0.49,11
1.31,0.37,11
1.3,0.43,11
1.3,0.52,11
1.31,0.4,11
1.3,0.38,11
1.3,0.5,11
1.31,0.44,11
1.3,0.35,11
1.28,0.47,11
1.3,0.49,11
1.3,0.37,11
1.29,0.42,11
1.3,0.52,11
1.31,0.39,11
1.3,0.37,11
1.31,0.5,11
1.32,0.44,11
1.32,0.34,11
1.31,0.47,11
1.32,0.48,11
1.32,0.36,11
1.31,0.42,11
1.32,0.51,11
1.33,0.39,11
1.32,0.37,11
1.32,0.49,11
1.33,0.43,11
1.32,0.34,11
1.31,0.46,11
1.32,0.47,11
1.32,0.35,11
1.31,0.41,11
1.32,0.5,11
1.32,0.38,11
1.31,0.36,11
1.31,0.48,11
1.32,0.42,11
1.31,0.32,11
1.3,0.44,11
1.31,0.46,11
1.3,0.34,11
1.29,0.4,11
1.3,0.5,11
1.31,0.38,11
1.3,0.36,11
1.31,0.48,11
1.32,0.42,11
1.31,0.32,11
1.31,0.44,11
1.32,0.45,11
1.31,0.34,11
1.3,0.39,11
1.31,0.48,11
1.32,0.36,11
1.31,0.35,11
1.31,0.47,11
1.32,0.41,11
1.32,0.32,11
1.31,0.44,11
1.32,0.45,11
1.32,0.34,11
1.3,0.4,11
1.32,0.49,11
1.32,0.37,11
1.31,0.35,11
1.31,0.47,11
1.33,0.41,11
1.31,0.32,11
1.31,0.44,11
1.32,0.45,11
1.32,0.34,11
1.31,0.4,11
1.32,0.49,11
1.33,0.37,11
1.32,0.36,11
1.33,0.47,11
1.34,0.41,11
1.33,0.32,11
1.32,0.43,11
1.33,0.45,11
1.33,0.33,11
1.32,0.39,11
1.33,0.48,11
1.33,0.36,11
1.32,0.34,11
1.33,0.46,11
1.34,0.4,11
1.33,0.31,11
1.32,0.43,11
1.33,0.45,11
1.33,0.33,11
1.32,0.39,11
1.33,0.48,11
1.34,0.36,11
1.33,0.35,11
1.34,0.46,11
1.34,0.4,11
1.33,0.31,11
1.32,0.43,11
1.33,0.45,11
1.33,0.33,11
1.32,0.39,11
1.34,0.48,11
1.35,0.36,11
1.34,0.35,11
1.34,0.47,11
1.35,0.41,11
1.34,0.32,11
1.33,0.44,11
1.34,0.45,11
1.34,0.34,11
1.33,0.39,11
1.34,0.49,11
1.34,0.37,11
1.33,0.36,11
1.33,0.48,11
1.34,0.42,11
1.33,0.33,11
1.32,0.45,11
1.34,0.46,11
1.33,0.34,11
1.32,0.4,11
1.33,0.5,11
1.34,0.38,11
1.33,0.37,11
1.33,0.49,11
1.34,0.43,11
1.33,0.34,11
1.32,0.47,11
1.34,0.48,11
1.33,0.36,11
1.32,0.42,11
1.33,0.52,11
1.34,0.39,11
1.32,0.38,11
1.32,0.5,11
1.33,0.45,11
1.32,0.36,11
1.31,0.48,11
1.32,0.5,11
1.32,0.37,11
1.32,0.43,11
1.34,0.53,11
1.37,0.41,11
1.38,0.4,11
1.41,0.53,11
1.44,0.48,11
1.46,0.39,11
1.48,0.52,11
1.51,0.54,11
1.53,0.42,11
1.55,0.48,11
1.58,0.58,11
1.61,0.47,11
1.62,0.46,11
1.65,0.59,11
1.68,0.54,11
1.69,0.45,11
1.7,0.58,11
1.73,0.6,11
1.74,0.48,11
1.75,0.55,11
1.78,0.65,11
1.8,0.53,11
1.8,0.53,11
1.82,0.66,11
1.84,0.61,11
1.83,0.52,11
1.83,0.65,11
1.85,0.66,11
1.85,0.54,11
1.85,0.6,11
1.85,0.7,11
1.86,0.57,11
1.85,0.56,11
1.85,0.69,11
1.85,0.63,11
1.84,0.54,11
1.83,0.66,11
1.84,0.68,11
1.83,0.55,11
1.82,0.61,11
1.83,0.7,11
1.84,0.58,11
1.83,0.57,11
1.83,0.7,11
1.83,0.64,11
1.81,0.55,11
1.8,0.67,11
1.81,0.68,11
1.81,0.56,11
1.79,0.62,11
1.8,0.7,11
1.81,0.58,11
1.8,0.57,11
1.81,0.7,11
1.82,0.64,11
1.82,0.54,11
1.81,0.67,11
1.83,0.68,11
1.82,0.55,11
1.82,0.61,11
1.83,0.7,11
1.84,0.58,11
1.82,0.57,11
1.82,0.69,11
1.83,0.63,11
1.81,0.54,11
1.8,0.66,11
1.81,0.68,11
1.81,0.55,11
1.8,0.61,11
1.81,0.7,11
1.82,0.58,11
1.8,0.57,11
1.8,0.7,11
1.81,0.65,11
1.8,0.56,11
1.8,0.68,11
1.81,0.69,11
1.8,0.57,11
1.78,0.63,11
1.79,0.72,11
1.8,0.6,11
1.78,0.58,11
1.79,0.71,11
1.8,0.65,11
1.78,0.56,11
1.77,0.68,11
1.78,0.7,11
1.77,0.57,11
1.75,0.64,11
1.76,0.72,11
1.77,0.6,11
1.75,0.58,11
1.76,0.71,11
1.77,0.65,11
1.76,0.56,11
1.75,0.69,11
1.76,0.7,11
1.75,0.58,11
1.74,0.64,11
1.75,0.73,11
1.76,0.61,11
1.74,0.59,11
1.75,0.72,11
1.76,0.66,11
1.75,0.57,11
1.74,0.69,11
1.75,0.71,11
1.74,0.58,11
1.73,0.64,11
1.74,0.73,11
1.75,0.6,11
1.73,0.59,11
1.73,0.71,11
1.74,0.65,11
1.73,0.57,11
1.72,0.69,11
1.74,0.71,11
1.73,0.58,11
1.72,0.64,11
1.73,0.73,11
1.73,0.6,11
1.72,0.59,11
1.72,0.71,11
1.73,0.65,11
1.71,0.56,11
1.7,0.68,11
1.71,0.69,11
1.7,0.57,11
1.69,0.63,11
1.71,0.71,11
1.72,0.59,11
1.71,0.58,11
1.73,0.7,11
1.73,0.64,11
1.71,0.55,11
1.68,0.67,11
1.66,0.68,11
1.62,0.55,11
1.58,0.61,11
1.55,0.7,11
1.52,0.57,11
1.47,0.55,11
1.43,0.67,11
1.41,0.59,11
1.36,0.49,11
1.32,0.61,11
1.3,0.61,11
1.27,0.47,11
1.23,0.52,11
1.21,0.6,11
1.2,0.47,11
1.17,0.46,11
1.16,0.58,11
1.16,0.51,11
1.14,0.42,11
1.13,0.54,11
1.15,0.55,11
1.14,0.42,11
1.13,0.49,11
1.14,0.58,11
1.15,0.46,11
1.14,0.45,11
1.15,0.57,11
1.16,0.51,11
1.14,0.42,11
1.13,0.54,11
1.14,0.55,11
1.14,0.43,11
1.13,0.5,11
1.15,0.59,11
1.16,0.47,11
1.15,0.46,11
1.16,0.59,11
1.16,0.53,11
1.15,0.44,11
1.15,0.57,11
1.16,0.57,11
1.16,0.45,11
1.16,0.51,11
1.17,0.6,11
1.18,0.47,11
1.17,0.47,11
1.17,0.59,11
1.18,0.53,11
1.17,0.44,11
1.16,0.57,11
1.18,0.58,11
1.17,0.45,11
1.17,0.52,11
1.18,0.61,11
1.19,0.49,11
1.18,0.48,11
1.19,0.6,11
1.21,0.54,11
1.19,0.45,11
1.19,0.58,11
1.2,0.59,11
1.19,0.46,11
1.18,0.52,11
1.19,0.61,11
1.2,0.49,11
1.18,0.48,11
1.19,0.61,11
1.2,0.55,11
1.19,0.46,11
1.18,0.59,11
1.19,0.6,11
1.19,0.48,11
1.18,0.54,11
1.19,0.63,11
1.2,0.5,11
1.19,0.49,11
1.19,0.62,11
1.21,0.56,11
1.2,0.48,11
1.19,0.6,11
1.2,0.61,11
1.2,0.48,11
1.19,0.54,11
1.2,0.63,11
1.21,0.51,11
1.21,0.5,11
1.21,0.62,11
1.23,0.56,11
1.23,0.47,11
1.22,0.59,11
1.23,0.6,11
1.23,0.48,11
1.22,0.55,11
1.24,0.63,11
1.25,0.51,11
1.24,0.5,11
1.24,0.63,11
1.25,0.57,11
1.23,0.48,11
1.23,0.61,11
1.24,0.62,11
1.23,0.49,11
1.21,0.56,11
1.22,0.64,11
1.23,0.52,11
1.21,0.51,11
1.22,0.64,11
1.24,0.57,11
1.23,0.49,11
1.23,0.61,11
1.24,0.62,11
1.24,0.49,11
1.23,0.55,11
1.24,0.64,11
1.25,0.51,11
1.24,0.51,11
1.24,0.63,11
1.26,0.57,11
1.24,0.49,11
1.24,0.61,11
1.25,0.63,11
1.24,0.5,11
1.24,0.57,11
1.25,0.65,11
1.25,0.53,11
1.24,0.52,11
1.24,0.65,11
1.25,0.58,11
1.24,0.5,11
1.23,0.62,11
1.25,0.63,11
1.25,0.51,11
1.24,0.57,11
1.25,0.65,11
1.26,0.53,11
1.25,0.53,11
1.25,0.65,11
1.27,0.59,11
1.25,0.51,11
1.25,0.63,11
1.26,0.64,11
1.27,0.52,11
1.26,0.59,11
1.27,0.67,11
1.28,0.55,11
1.26,0.54,11
1.27,0.66,11
1.28,0.6,11
1.27,0.51,11
1.26,0.64,11
1.27,0.65,11
1.27,0.52,11
1.26,0.58,11
1.28,0.66,11
1.28,0.54,11
1.27,0.53,11
1.28,0.66,11
1.29,0.6,11
1.28,0.52,11
1.27,0.65,11
1.28,0.66,11
1.28,0.53,11
1.27,0.6,11
1.29,0.68,11
1.29,0.56,11
1.28,0.56,11
1.28,0.68,11
1.3,0.62,11
1.28,0.53,11
1.27,0.66,11
1.29,0.66,11
1.28,0.54,11
1.27,0.61,11
1.29,0.7,11
1.3,0.57,12
1.29,0.57,12
1.29,0.69,12
1.3,0.63,12
1.29,0.54,12
1.28,0.67,12
1.29,0.68,12
1.29,0.55,12
1.28,0.62,12
1.3,0.7,12
1.31,0.58,12
1.3,0.57,12
1.3,0.7,12
1.32,0.64,12
1.3,0.55,12
1.3,0.68,12
1.31,0.69,12
1.31,0.56,12
1.3,0.63,12
1.31,0.71,12
1.32,0.59,12
1.3,0.58,12
1.31,0.71,12
1.32,0.64,12
1.31,0.56,12
1.3,0.69,12
1.31,0.69,12
1.31,0.57,12
1.3,0.64,12
1.32,0.72,12
1.32,0.6,12
1.31,0.59,12
1.31,0.72,12
1.33,0.65,12
1.31,0.58,12
1.31,0.7,12
1.33,0.71,12
1.32,0.59,12
1.31,0.65,12
1.32,0.74,12
1.33,0.61,12
1.32,0.61,12
1.32,0.74,12
1.33,0.67,12
1.32,0.59,12
1.32,0.71,12
1.33,0.72,12
1.33,0.59,12
1.32,0.66,12
1.34,0.74,12
1.34,0.62,12
1.33,0.61,12
1.34,0.74,12
1.35,0.67,12
1.33,0.59,12
1.33,0.72,12
1.34,0.72,12
1.34,0.6,12
1.33,0.67,12
1.35,0.75,12
1.35,0.63,12
1.34,0.62,12
1.34,0.75,12
1.36,0.67,12
1.34,0.59,12
1.34,0.72,12
1.36,0.72,12
1.35,0.6,12
1.34,0.67,12
1.36,0.75,12
1.36,0.62,12
1.35,0.62,12
1.35,0.74,12
1.36,0.68,12
1.35,0.6,12
1.34,0.72,12
1.36,0.73,12
1.35,0.6,12
1.34,0.67,12
1.36,0.75,12
1.36,0.63,12
1.35,0.62,12
1.35,0.75,12
1.36,0.68,12
1.35,0.6,12
1.35,0.73,12
1.36,0.74,12
1.36,0.62,12
1.35,0.69,12
1.37,0.77,12
1.37,0.64,12
1.36,0.63,12
1.37,0.76,12
1.38,0.69,12
1.36,0.61,12
1.36,0.74,12
1.37,0.75,12
1.37,0.62,12
1.36,0.69,12
1.37,0.77,12
1.38,0.64,12
1.37,0.64,12
1.38,0.76,12
1.39,0.69,12
1.38,0.61,12
1.37,0.73,12
1.39,0.74,12
1.39,0.62,12
1.38,0.69,12
1.39,0.77,12
1.4,0.64,12
1.39,0.63,12
1.39,0.76,12
1.4,0.69,12
1.38,0.61,12
1.37,0.74,12
1.39,0.75,12
1.39,0.63,12
1.38,0.7,12
1.4,0.77,12
1.41,0.65,12
1.4,0.64,12
1.4,0.76,12
1.42,0.69,12
1.4,0.62,12
1.39,0.75,12
1.41,0.75,12
1.41,0.63,12
1.39,0.7,12
1.41,0.78,12
1.41,0.65,12
1.4,0.64,12
1.4,0.77,12
1.41,0.7,12
1.4,0.62,12
1.39,0.75,12
1.4,0.76,12
1.4,0.64,12
1.39,0.71,12
1.4,0.78,12
1.41,0.66,12
1.4,0.66,12
1.4,0.79,12
1.42,0.71,12
1.41,0.64,12
1.4,0.77,12
1.41,0.76,12
1.41,0.64,12
1.4,0.72,12
1.42,0.79,12
1.42,0.67,12
1.41,0.67,12
1.41,0.8,12
1.43,0.72,12
1.41,0.64,12
1.41,0.77,12
1.42,0.77,12
1.41,0.65,12
1.4,0.72,12
1.41,0.8,12
1.42,0.67,12
1.41,0.68,12
1.42,0.8,12
1.43,0.72,12
1.42,0.64,12
1.41,0.77,12
1.43,0.77,12
1.43,0.65,12
1.42,0.72,12
1.43,0.79,12
1.44,0.66,12
1.43,0.66,12
1.43,0.79,12
1.44,0.72,12
1.43,0.64,12
1.42,0.77,12
1.44,0.77,12
1.44,0.65,12
1.43,0.72,12
1.45,0.79,12
1.45,0.66,12
1.44,0.66,12
1.44,0.78,12
1.46,0.71,12
1.44,0.64,12
1.44,0.77,12
1.45,0.77,12
1.45,0.65,12
1.44,0.72,12
1.46,0.79,12
1.48,0.66,12
1.47,0.67,12
1.48,0.79,12
1.5,0.71,12
1.48,0.64,12
1.48,0.76,12
1.5,0.76,12
1.49,0.64,12
1.48,0.71,12
1.5,0.79,12
1.5,0.66,12
1.49,0.66,12
1.5,0.79,12
1.51,0.71,12
1.49,0.64,12
1.49,0.77,12
1.5,0.76,12
1.5,0.64,12
1.49,0.71,12
1.51,0.79,12
1.51,0.66,12
1.5,0.66,12
1.51,0.79,12
1.52,0.72,12
1.5,0.65,12
1.5,0.78,12
1.51,0.77,12
1.51,0.65,12
1.5,0.73,12
1.52,0.8,12
1.53,0.67,12
1.51,0.68,12
1.52,0.8,12
1.54,0.73,12
1.52,0.65,12
1.52,0.78,12
1.53,0.77,12
1.52,0.65,12
1.5,0.72,12
1.52,0.79,12
1.52,0.66,12
1.5,0.67,12
1.51,0.79,12
1.53,0.72,12
1.51,0.65,12
1.51,0.78,12
1.53,0.77,12
1.53,0.65,12
1.51,0.73,12
1.53,0.8,12
1.53,0.67,12
1.52,0.69,12
1.53,0.81,12
1.54,0.73,12
1.52,0.66,12
1.52,0.79,12
1.54,0.79,12
1.53,0.67,12
1.52,0.75,12
1.54,0.82,12
1.54,0.69,12
1.52,0.7,12
1.53,0.82,12
1.54,0.75,12
1.52,0.69,12
1.52,0.82,12
1.53,0.81,12
1.53,0.7,12
1.52,0.77,12
1.53,0.83,12
1.54,0.7,12
1.52,0.71,12
1.53,0.83,12
1.54,0.76,12
1.53,0.69,12
1.53,0.82,12
1.54,0.82,12
1.54,0.7,12
1.53,0.77,12
1.54,0.84,12
1.54,0.7,12
1.53,0.71,12
1.54,0.83,12
1.55,0.75,12
1.54,0.69,12
1.54,0.82,12
1.55,0.81,12
1.55,0.69,12
1.54,0.77,12
1.56,0.84,12
1.57,0.71,12
1.56,0.72,12
1.57,0.84,12
1.58,0.77,12
1.56,0.7,12
1.56,0.83,12
1.57,0.82,12
1.56,0.7,12
1.55,0.77,12
1.56,0.84,12
1.56,0.71,12
1.55,0.73,12
1.55,0.85,12
1.56,0.78,12
1.54,0.71,12
1.54,0.84,12
1.55,0.83,12
1.55,0.71,12
1.54,0.78,12
1.55,0.85,12
1.56,0.72,12
1.54,0.73,12
1.55,0.85,12
1.55,0.77,12
1.54,0.7,12
1.52,0.83,12
1.54,0.82,12
1.54,0.7,12
1.54,0.78,12
1.57,0.86,12
1.6,0.73,12
1.6,0.75,12
1.63,0.88,12
1.67,0.81,12
1.68,0.75,12
1.71,0.89,12
1.75,0.88,12
1.77,0.76,12
1.78,0.85,12
1.82,0.92,12
1.84,0.79,12
1.85,0.81,12
1.88,0.93,12
1.9,0.84,12
1.9,0.78,12
1.9,0.92,12
1.93,0.91,12
1.94,0.79,12
1.94,0.88,12
1.96,0.95,12
1.96,0.83,12
1.96,0.85,12
1.96,0.97,12
1.96,0.89,12
1.96,0.83,12
1.95,0.96,12
1.96,0.95,12
1.96,0.84,12
1.96,0.93,12
1.96,0.99,12
1.96,0.86,12
1.96,0.87,12
1.96,0.99,12
1.96,0.91,12
1.96,0.85,12
1.96,0.98,12
1.96,0.97,12
1.96,0.85,12
1.96,0.94,12
1.96,1.0,12
1.96,0.87,12
1.96,0.89,12
1.96,1.01,12
1.96,0.92,12
1.96,0.86,12
1.96,1.0,12
1.96,0.98,12
1.96,0.86,12
1.96,0.94,12
1.96,1.0,12
1.96,0.87,12
1.96,0.89,12
1.96,1.01,12
1.96,0.92,12
1.95,0.86,12
1.95,0.99,12
1.95,0.97,12
1.95,0.85,12
1.95,0.94,12
1.96,1.0,12
1.96,0.87,12
1.95,0.89,12
1.95,1.0,12
1.95,0.91,12
1.94,0.85,12
1.94,0.99,12
1.95,0.97,12
1.95,0.85,12
1.95,0.94,12
1.96,0.99,12
1.96,0.86,12
1.95,0.88,12
1.95,0.99,12
1.95,0.9,12
1.94,0.84,12
1.94,0.97,12
1.95,0.95,12
1.95,0.83,12
1.95,0.92,12
1.96,0.97,12
1.96,0.84,12
1.95,0.86,12
1.95,0.98,12
1.95,0.9,12
1.93,0.84,12
1.93,0.97,12
1.95,0.95,12
1.95,0.84,12
1.95,0.93,12
1.96,0.98,12
1.96,0.85,12
1.94,0.87,12
1.94,0.98,12
1.94,0.89,12
1.93,0.83,12
1.93,0.97,12
1.94,0.94,12
1.94,0.83,12
1.94,0.92,12
1.95,0.97,12
1.95,0.84,12
1.93,0.87,12
1.93,0.98,12
1.93,0.89,12
1.92,0.83,12
1.92,0.96,12
1.93,0.94,12
1.92,0.82,12
1.92,0.92,12
1.93,0.98,12
1.93,0.84,12
1.92,0.87,12
1.92,0.98,12
1.92,0.89,12
1.91,0.83,12
1.91,0.97,12
1.92,0.94,12
1.91,0.83,12
1.9,0.92,12
1.91,0.98,12
1.91,0.84,12
1.89,0.87,12
1.9,0.99,12
1.9,0.89,12
1.89,0.84,12
1.89,0.97,12
1.9,0.95,12
1.89,0.83,12
1.88,0.93,12
1.89,0.98,12
1.89,0.85,12
1.88,0.88,12
1.88,0.99,12
1.89,0.89,12
1.88,0.84,12
1.88,0.97,12
1.89,0.94,12
1.88,0.83,12
1.87,0.93,12
1.88,0.98,12
1.88,0.85,12
1.86,0.88,12
1.86,1.0,12
1.87,0.9,12
1.86,0.84,12
1.85,0.97,12
1.86,0.95,12
1.85,0.83,12
1.83,0.93,12
1.84,0.99,12
1.83,0.85,12
1.82,0.88,12
1.83,0.99,12
1.84,0.89,12
1.83,0.84,12
1.83,0.97,12
1.84,0.94,12
1.83,0.83,12
1.81,0.93,12
1.83,0.98,12
1.82,0.85,12
1.8,0.88,12
1.8,0.99,12
1.81,0.89,12
1.8,0.84,12
1.81,0.97,12
1.83,0.94,12
1.81,0.82,12
1.79,0.92,12
1.78,0.97,12
1.74,0.83,12
1.68,0.86,12
1.66,0.97,12
1.64,0.86,12
1.58,0.81,12
1.54,0.94,12
1.51,0.9,12
1.47,0.78,12
1.42,0.86,12
1.41,0.9,12
1.38,0.75,12
1.34,0.78,12
1.32,0.88,12
1.31,0.77,12
1.28,0.72,12
1.26,0.85,12
1.26,0.81,12
1.25,0.7,12
1.22,0.8,12
1.24,0.84,12
1.23,0.7,12
1.22,0.74,12
1.23,0.85,12
1.25,0.74,12
1.23,0.7,12
1.23,0.83,12
1.25,0.8,12
1.24,0.69,12
1.23,0.79,12
1.24,0.84,12
1.24,0.71,12
1.23,0.74,12
1.23,0.85,12
1.24,0.75,12
1.22,0.71,12
1.22,0.84,12
1.23,0.81,12
1.22,0.7,12
1.21,0.8,12
1.23,0.84,12
1.23,0.71,12
1.22,0.74,12
1.23,0.85,12
1.24,0.75,12
1.23,0.71,12
1.23,0.84,12
1.24,0.8,12
1.24,0.69,12
1.22,0.8,12
1.24,0.84,12
1.23,0.71,12
1.22,0.74,12
1.22,0.85,12
1.24,0.75,12
1.23,0.71,12
1.23,0.85,12
1.24,0.81,12
1.23,0.7,12
1.21,0.81,12
1.23,0.85,12
1.23,0.72,12
1.22,0.75,12
1.22,0.86,12
1.23,0.75,12
1.21,0.72,12
1.21,0.85,12
1.22,0.81,12
1.21,0.71,12
1.19,0.82,12
1.21,0.86,12
1.21,0.72,12
1.2,0.76,12
1.21,0.87,12
1.23,0.76,12
1.22,0.72,12
1.22,0.86,12
1.23,0.82,12
1.23,0.72,12
1.21,0.83,12
1.23,0.86,12
1.23,0.73,12
1.22,0.77,12
1.23,0.88,12
1.24,0.76,12
1.23,0.73,12
1.23,0.87,12
1.24,0.83,12
1.24,0.73,12
1.23,0.85,12
1.25,0.88,12
1.25,0.75,12
1.23,0.8,12
1.24,0.91,12
1.25,0.8,12
1.25,0.76,12
1.25,0.9,12
1.27,0.86,12
1.26,0.75,12
1.25,0.87,12
1.27,0.91,12
1.26,0.77,12
1.25,0.82,12
1.26,0.93,12
1.27,0.82,12
1.26,0.79,12
1.26,0.93,12
1.29,0.89,12
1.28,0.79,12
1.27,0.9,12
1.28,0.94,12
1.28,0.81,12
1.26,0.86,12
1.27,0.97,12
1.29,0.86,12
1.28,0.83,12
1.29,0.97,12
1.3,0.92,12
1.29,0.82,12
1.28,0.94,12
1.3,0.97,12
1.3,0.84,12
1.29,0.9,12
1.31,1.0,12
1.32,0.89,12
1.31,0.87,12
1.32,1.01,12
1.33,0.96,12
1.33,0.86,12
1.31,0.99,12
1.33,1.02,12
1.33,0.89,12
1.32,0.95,12
1.33,1.06,12
1.35,0.95,12
1.34,0.93,12
1.34,1.07,12
1.36,1.02,12
1.35,0.93,12
1.34,1.05,12
1.36,1.08,12
1.35,0.95,12
1.34,1.01,12
1.34,1.11,12
1.35,1.0,12
1.34,0.98,12
1.34,1.12,12
1.35,1.07,12
1.35,0.97,13
1.34,1.1,13
1.35,1.12,13
1.36,1.0,13
1.35,1.06,13
1.36,1.17,13
1.38,1.05,13
1.37,1.04,13
1.37,1.17,13
1.38,1.12,13
1.37,1.02,13
1.35,1.14,13
1.37,1.16,13
1.37,1.04,13
1.37,1.09,13
1.38,1.2,13
1.39,1.08,13
1.37,1.07,13
1.37,1.21,13
1.38,1.16,13
1.37,1.07,13
1.36,1.19,13
1.37,1.22,13
1.37,1.09,13
1.37,1.16,13
1.38,1.26,13
1.39,1.14,13
1.38,1.13,13
1.38,1.26,13
1.39,1.2,13
1.39,1.11,13
1.37,1.24,13
1.4,1.26,13
1.4,1.14,13
1.39,1.2,13
1.39,1.29,13
1.41,1.17,13
1.39,1.16,13
1.4,1.29,13
1.42,1.24,13
1.41,1.15,13
1.41,1.28,13
1.43,1.29,13
1.43,1.16,13
1.41,1.22,13
1.43,1.32,13
1.44,1.21,13
1.43,1.2,13
1.44,1.34,13
1.45,1.29,13
1.45,1.21,13
1.44,1.33,13
1.46,1.35,13
1.46,1.22,13
1.45,1.29,13
1.46,1.39,13
1.47,1.27,13
1.46,1.26,13
1.46,1.39,13
1.48,1.33,13
1.47,1.24,13
1.46,1.37,13
1.48,1.39,13
1.48,1.26,13
1.47,1.33,13
1.48,1.42,13
1.5,1.3,13
1.49,1.29,13
1.49,1.41,13
1.5,1.35,13
1.49,1.26,13
1.49,1.39,13
1.5,1.4,13
1.5,1.27,13
1.5,1.34,13
1.51,1.43,13
1.53,1.3,13
1.53,1.3,13
1.53,1.43,13
1.54,1.36,13
1.53,1.28,13
1.52,1.41,13
1.53,1.41,13
1.53,1.29,13
1.53,1.36,13
1.55,1.44,13
1.56,1.31,13
1.56,1.31,13
1.57,1.43,13
1.57,1.36,13
1.56,1.28,13
1.56,1.4,13
1.57,1.41,13
1.56,1.28,13
1.56,1.35,13
1.57,1.43,13
1.58,1.31,13
1.58,1.3,13
1.59,1.42,13
1.6,1.35,13
1.59,1.27,13
1.58,1.39,13
1.59,1.4,13
1.58,1.28,13
1.57,1.34,13
1.59,1.43,13
1.6,1.3,13
1.59,1.29,13
1.59,1.42,13
1.61,1.34,13
1.6,1.26,13
1.6,1.39,13
1.62,1.39,13
1.62,1.26,13
1.61,1.33,13
1.63,1.41,13
1.63,1.28,13
1.62,1.28,13
1.63,1.4,13
1.65,1.33,13
1.63,1.25,13
1.62,1.38,13
1.64,1.38,13
1.64,1.26,13
1.62,1.34,13
1.63,1.42,13
1.64,1.29,13
1.62,1.29,13
1.63,1.41,13
1.64,1.34,13
1.63,1.26,13
1.62,1.39,13
1.64,1.4,13
1.64,1.27,13
1.63,1.34,13
1.65,1.41,13
1.65,1.28,13
1.64,1.28,13
1.64,1.4,13
1.65,1.33,13
1.63,1.26,13
1.63,1.39,13
1.64,1.39,13
1.64,1.27,13
1.62,1.34,13
1.64,1.4,13
1.65,1.27,13
1.64,1.27,13
1.64,1.39,13
1.65,1.32,13
1.64,1.24,13
1.64,1.37,13
1.65,1.36,13
1.65,1.23,13
1.63,1.3,13
1.65,1.37,13
1.65,1.23,13
1.64,1.24,13
1.65,1.36,13
1.66,1.28,13
1.65,1.2,13
1.65,1.33,13
1.66,1.32,13
1.65,1.2,13
1.64,1.27,13
1.65,1.34,13
1.66,1.21,13
1.65,1.21,13
1.66,1.34,13
1.68,1.26,13
1.66,1.18,13
1.66,1.31,13
1.68,1.3,13
1.68,1.17,13
1.66,1.25,13
1.68,1.32,13
1.68,1.19,13
1.66,1.2,13
1.67,1.32,13
1.68,1.24,13
1.66,1.17,13
1.66,1.3,13
1.67,1.29,13
1.67,1.17,13
1.66,1.25,13
1.68,1.32,13
1.69,1.18,13
1.67,1.2,13
1.68,1.31,13
1.69,1.23,13
1.67,1.16,13
1.66,1.29,13
1.68,1.27,13
1.67,1.15,13
1.66,1.24,13
1.68,1.3,13
1.69,1.17,13
1.67,1.19,13
1.68,1.31,13
1.69,1.22,13
1.68,1.16,13
1.67,1.29,13
1.69,1.27,13
1.68,1.14,13
1.66,1.23,13
1.67,1.29,13
1.67,1.16,13
1.65,1.17,13
1.66,1.3,13
1.67,1.2,13
1.66,1.14,13
1.65,1.27,13
1.67,1.25,13
1.67,1.12,13
1.65,1.21,13
1.67,1.27,13
1.67,1.13,13
1.66,1.15,13
1.66,1.27,13
1.69,1.18,13
1.68,1.13,13
1.68,1.26,13
1.7,1.24,13
1.7,1.13,13
1.68,1.22,13
1.7,1.27,13
1.7,1.14,13
1.68,1.16,13
1.68,1.27,13
1.7,1.18,13
1.68,1.13,13
1.68,1.26,13
1.69,1.24,13
1.69,1.12,13
1.67,1.21,13
1.68,1.26,13
1.69,1.13,13
1.67,1.16,13
1.67,1.28,13
1.69,1.18,13
1.68,1.13,13
1.68,1.26,13
1.69,1.24,13
1.68,1.12,13
1.67,1.22,13
1.68,1.27,13
1.68,1.14,13
1.67,1.17,13
1.67,1.28,13
1.69,1.19,13
1.68,1.14,13
1.67,1.27,13
1.68,1.24,13
1.68,1.13,13
1.67,1.22,13
1.68,1.27,13
1.68,1.14,13
1.67,1.16,13
1.67,1.27,13
1.69,1.18,13
1.67,1.13,13
1.67,1.27,13
1.69,1.24,13
1.68,1.13,13
1.67,1.22,13
1.68,1.27,13
1.69,1.13,13
1.67,1.16,13
1.68,1.28,13
1.69,1.18,13
1.68,1.13,13
1.67,1.26,13
1.69,1.23,13
1.69,1.12,13
1.67,1.22,13
1.69,1.27,13
1.7,1.13,13
1.69,1.17,13
1.69,1.28,13
1.7,1.18,13
1.69,1.14,13
1.69,1.27,13
1.7,1.23,13
1.7,1.12,13
1.69,1.22,13
1.7,1.27,13
1.7,1.14,13
1.69,1.16,13
1.69,1.27,13
1.71,1.17,13
1.7,1.12,13
1.69,1.25,13
1.7,1.22,13
1.7,1.1,13
1.69,1.21,13
1.7,1.25,13
1.7,1.13,13
1.69,1.16,13
1.69,1.27,13
1.71,1.17,13
1.7,1.13,13
1.7,1.26,13
1.72,1.22,13
1.72,1.12,13
1.7,1.22,13
1.72,1.26,13
1.72,1.12,13
1.71,1.16,13
1.71,1.26,13
1.72,1.16,13
1.71,1.12,13
1.71,1.24,13
1.72,1.2,13
1.72,1.1,13
1.7,1.2,13
1.71,1.24,13
1.71,1.11,13
1.7,1.14,13
1.71,1.25,13
1.72,1.14,13
1.71,1.11,13
1.7,1.24,13
1.71,1.2,13
1.71,1.08,13
1.7,1.18,13
1.7,1.22,13
1.7,1.08,13
1.69,1.12,13
1.69,1.23,13
1.71,1.12,13
1.7,1.09,13
1.7,1.22,13
1.71,1.18,13
1.71,1.07,13
1.7,1.17,13
1.71,1.21,13
1.71,1.08,13
1.71,1.13,13
1.71,1.24,13
1.73,1.13,13
1.71,1.1,13
1.71,1.23,13
1.72,1.18,13
1.72,1.07,13
1.71,1.18,13
1.72,1.22,13
1.72,1.08,13
1.71,1.13,13
1.71,1.23,13
1.73,1.12,13
1.72,1.09,13
1.71,1.22,13
1.73,1.18,13
1.73,1.07,13
1.71,1.18,13
1.72,1.21,13
1.72,1.08,13
1.71,1.13,13
1.71,1.23,13
1.73,1.12,13
1.71,1.1,13
1.71,1.23,13
1.73,1.18,13
1.72,1.08,13
1.71,1.19,13
1.72,1.21,13
1.72,1.08,13
1.71,1.13,13
1.71,1.23,13
1.73,1.11,13
1.72,1.08,13
1.71,1.22,13
1.73,1.16,13
1.72,1.06,13
1.71,1.17,13
1.72,1.2,13
1.72,1.06,13
1.71,1.11,13
1.71,1.21,13
1.73,1.1,13
1.71,1.07,13
1.72,1.2,13
1.73,1.14,13
1.73,1.04,13
1.71,1.16,13
1.72,1.18,13
1.72,1.05,13
1.71,1.1,13
1.71,1.19,13
1.73,1.07,13
1.71,1.05,13
1.71,1.18,13
1.72,1.12,13
1.72,1.03,13
1.71,1.13,13
1.72,1.14,13
1.72,1.0,13
1.71,1.04,13
1.72,1.12,13
1.73,1.0,13
1.72,0.98,13
1.72,1.11,13
1.73,1.05,13
1.73,0.95,13
1.72,1.07,13
1.74,1.08,13
1.74,0.95,13
1.73,1.0,13
1.74,1.09,13
1.76,0.98,13
1.75,0.96,13
1.75,1.09,13
1.76,1.03,13
1.75,0.93,13
1.73,1.04,13
1.74,1.06,13
1.74,0.92,13
1.73,0.98,13
1.74,1.07,13
1.76,0.94,13
1.75,0.92,13
1.74,1.05,13
1.76,0.98,13
1.75,0.89,13
1.73,1.01,13
1.74,1.02,13
1.74,0.89,13
1.72,0.94,13
1.73,1.03,13
1.74,0.9,13
1.73,0.89,13
1.72,1.02,13
1.73,0.95,13
1.72,0.86,13
1.71,0.98,13
1.72,0.99,13
1.72,0.85,13
1.7,0.91,13
1.72,1.0,13
1.73,0.87,13
1.71,0.85,13
1.71,0.97,13
1.72,0.91,13
1.7,0.82,13
1.69,0.93,13
1.7,0.94,13
1.69,0.81,13
1.68,0.87,13
1.69,0.95,13
1.7,0.82,13
1.69,0.81,13
1.69,0.93,13
1.7,0.86,13
1.69,0.77,13
1.68,0.89,13
1.69,0.9,13
1.69,0.77,13
1.68,0.83,13
1.7,0.91,13
1.71,0.78,13
1.7,0.77,13
1.7,0.89,13
1.71,0.82,13
1.7,0.73,13
1.69,0.86,13
1.7,0.86,13
1.7,0.73,13
1.7,0.79,13
1.71,0.87,13
1.72,0.74,13
1.7,0.73,13
1.7,0.85,13
1.71,0.78,13
1.7,0.69,13
1.69,0.82,13
1.7,0.81,13
1.69,0.69,13
1.67,0.75,13
1.68,0.83,13
1.68,0.7,13
1.66,0.69,13
1.66,0.81,13
1.67,0.73,13
1.65,0.65,13
1.64,0.77,13
1.66,0.77,13
1.65,0.64,13
1.64,0.71,13
1.65,0.79,13
1.66,0.66,13
1.64,0.65,13
1.64,0.77,13
1.65,0.69,13
1.63,0.61,13
1.63,0.73,13
1.64,0.73,13
1.64,0.61,13
1.63,0.68,13
1.64,0.75,13
1.65,0.62,13
1.64,0.61,13
1.63,0.73,13
1.64,0.65,13
1.63,0.57,13
1.62,0.69,13
1.63,0.69,13
1.63,0.57,13
1.62,0.64,13
1.63,0.71,13
1.64,0.58,13
1.62,0.58,13
1.63,0.69,13
1.64,0.61,13
1.63,0.54,13
1.62,0.66,13
1.63,0.65,13
1.63,0.53,13
1.61,0.6,13
1.62,0.67,13
1.63,0.54,13
1.61,0.54,13
1.61,0.66,13
1.62,0.58,13
1.6,0.51,13
1.6,0.63,13
1.61,0.62,13
1.61,0.5,13
1.59,0.57,13
1.61,0.64,13
1.61,0.51,13
1.6,0.53,13
1.6,0.66,13
1.61,0.59,13
1.59,0.52,13
1.58,0.64,13
1.59,0.62,13
1.59,0.51,13
1.58,0.58,13
1.59,0.66,13
1.59,0.54,13
1.57,0.55,13
1.57,0.66,13
1.58,0.58,13
1.56,0.51,13
1.56,0.63,13
1.57,0.62,13
1.57,0.5,13
1.55,0.58,13
1.57,0.65,13
1.57,0.52,13
1.56,0.52,13
1.57,0.62,13
1.58,0.53,13
1.56,0.45,13
1.55,0.58,13
1.56,0.57,13
1.56,0.47,13
1.54,0.55,13
1.55,0.61,13
1.56,0.46,13
1.54,0.47,13
1.53,0.57,13
1.54,0.5,13
1.52,0.44,13
1.51,0.57,13
1.52,0.55,13
1.52,0.43,13
1.5,0.5,13
1.52,0.56,13
1.51,0.43,13
1.49,0.44,13
1.49,0.55,13
1.51,0.47,13
1.5,0.41,13
1.51,0.53,13
1.55,0.52,13
1.56,0.4,13
1.57,0.49,13
1.61,0.55,13
1.63,0.42,13
1.65,0.43,13
1.68,0.54,13
1.72,0.45,13
1.73,0.39,13
1.75,0.51,13
1.78,0.49,13
1.8,0.37,13
1.8,0.45,13
1.83,0.5,13
1.85,0.38,13
1.85,0.4,13
1.86,0.52,13
1.88,0.45,13
1.88,0.4,13
1.89,0.54,13
1.91,0.53,13
1.92,0.43,13
1.91,0.53,13
1.93,0.59,13
1.93,0.46,13
1.92,0.49,13
1.92,0.61,13
1.93,0.53,13
1.92,0.49,13
1.92,0.62,13
1.93,0.6,13
1.93,0.49,13
1.92,0.58,13
1.93,0.63,13
1.93,0.5,13
1.91,0.52,13
1.9,0.63,13
1.91,0.54,13
1.89,0.49,13
1.88,0.62,13
1.89,0.6,13
1.89,0.48,13
1.88,0.57,13
1.89,0.62,13
1.89,0.49,13
1.87,0.52,13
1.87,0.63,13
1.88,0.54,13
1.87,0.48,13
1.86,0.61,13
1.87,0.59,13
1.87,0.48,13
1.84,0.57,13
1.86,0.62,13
1.86,0.49,13
1.84,0.51,13
1.85,0.62,13
1.87,0.53,13
1.85,0.47,13
1.85,0.6,13
1.86,0.58,13
1.85,0.47,13
1.83,0.56,13
1.84,0.61,13
1.83,0.48,13
1.82,0.5,13
1.82,0.61,13
1.83,0.51,13
1.81,0.46,13
1.81,0.6,13
1.82,0.57,13
1.81,0.46,13
1.79,0.56,13
1.81,0.6,13
1.81,0.47,13
1.79,0.5,13
1.79,0.6,13
1.8,0.5,13
1.78,0.46,13
1.78,0.59,13
1.78,0.56,13
1.77,0.45,13
1.76,0.55,13
1.77,0.6,13
1.76,0.46,13
1.75,0.49,13
1.75,0.6,13
1.76,0.49,13
1.74,0.45,13
1.74,0.58,13
1.74,0.56,13
1.73,0.45,13
1.71,0.55,13
1.72,0.6,13
1.72,0.47,13
1.71,0.5,13
1.71,0.6,13
1.73,0.5,13
1.71,0.46,13
1.71,0.59,13
1.72,0.56,13
1.72,0.45,13
1.7,0.56,13
1.71,0.6,13
1.7,0.47,13
1.69,0.5,13
1.69,0.6,13
1.7,0.5,13
1.69,0.46,13
1.68,0.6,13
1.69,0.57,13
1.69,0.46,13
1.67,0.56,13
1.68,0.6,13
1.68,0.47,13
1.67,0.5,13
1.67,0.61,13
1.68,0.5,13
1.67,0.47,13
1.67,0.6,13
1.67,0.57,13
1.67,0.46,13
1.65,0.57,13
1.66,0.61,13
1.66,0.47,13
1.65,0.5,13
1.65,0.61,13
1.66,0.5,13
1.65,0.47,13
1.64,0.6,13
1.65,0.58,13
1.64,0.48,13
1.63,0.59,13
1.64,0.63,13
1.64,0.5,13
1.63,0.53,13
1.64,0.64,13
1.65,0.53,13
1.64,0.5,13
1.63,0.63,13
1.63,0.59,13
1.62,0.49,13
1.59,0.6,13
1.6,0.64,13
1.6,0.51,13
1.6,0.55,13
1.59,0.65,13
1.59,0.54,13
1.55,0.5,13
1.52,0.63,13
1.49,0.58,13
1.45,0.47,13
1.4,0.57,13
1.38,0.59,13
1.34,0.45,13
1.29,0.48,13
1.25,0.57,13
1.23,0.45,13
1.18,0.41,13
1.15,0.53,13
1.13,0.48,13
1.1,0.38,13
1.06,0.48,13
1.05,0.51,13
1.03,0.38,13
1.0,0.42,13
0.99,0.52,13
1.0,0.41,13
0.98,0.38,13
0.99,0.5,13
1.0,0.46,13
1.0,0.36,13
0.99,0.47,13
1.01,0.5,13
1.0,0.38,13
1.0,0.42,13
1.0,0.52,13
1.02,0.42,13
1.01,0.4,13
1.02,0.52,13
1.03,0.48,13
1.03,0.39,13
1.01,0.49,13
1.02,0.51,13
1.02,0.38,13
1.01,0.44,13
1.01,0.54,13
1.02,0.43,13
1.01,0.41,13
1.0,0.55,13
1.01,0.5,13
1.01,0.39,13
1.0,0.5,13
1.01,0.51,13
1.01,0.38,13
1.0,0.42,13
1.01,0.52,13
1.03,0.4,13
1.02,0.38,13
1.03,0.5,13
1.04,0.47,13
1.03,0.37,13
1.02,0.48,13
1.03,0.51,13
1.03,0.39,13
1.02,0.42,13
1.03,0.52,13
1.05,0.41,13
1.04,0.38,13
1.05,0.51,13
1.06,0.46,13
1.06,0.36,13
1.05,0.48,13
1.07,0.5,13
1.07,0.38,13
1.06,0.43,13
1.06,0.52,13
1.07,0.41,13
1.06,0.39,13
1.06,0.51,13
1.06,0.47,13
1.06,0.37,13
1.05,0.49,13
1.06,0.51,13
1.06,0.39,13
1.06,0.43,13
1.07,0.53,13
1.08,0.42,13
1.07,0.39,13
1.08,0.52,13
1.09,0.48,13
1.09,0.38,13
1.08,0.5,13
1.09,0.52,13
1.08,0.39,13
1.08,0.43,13
1.08,0.53,13
1.09,0.41,13
1.08,0.39,13
1.08,0.51,13
1.09,0.46,13
1.08,0.37,13
1.07,0.48,13
1.08,0.51,13
1.08,0.38,13
1.07,0.43,13
1.08,0.53,13
1.09,0.41,13
1.08,0.4,13
1.08,0.52,13
1.09,0.48,13
1.08,0.39,13
1.08,0.51,13
1.09,0.53,13
1.08,0.41,13
1.07,0.46,13
1.08,0.56,13
1.09,0.44,13
1.08,0.42,13
1.08,0.56,13
1.1,0.49,13
1.1,0.4,13
1.09,0.53,13
1.1,0.55,13
1.09,0.42,13
1.09,0.48,13
1.09,0.57,13
1.11,0.44,13
1.1,0.42,13
1.1,0.53,13
1.11,0.47,13
1.1,0.37,13
1.09,0.49,13
1.09,0.5,13
1.09,0.37,13
1.07,0.42,13
1.08,0.51,13
1.1,0.4,13
1.09,0.38,13
1.1,0.51,13
1.11,0.45,13
1.1,0.36,13
1.09,0.47,13
1.1,0.49,13
1.1,0.37,13
1.09,0.43,13
1.1,0.53,13
1.11,0.41,13
1.1,0.41,13
1.1,0.54,13
1.11,0.47,13
1.1,0.38,13
1.09,0.5,13
1.1,0.51,13
1.1,0.38,13
1.09,0.45,13
1.1,0.53,13
1.11,0.42,13
1.1,0.4,13
1.1,0.51,13
1.11,0.44,13
1.1,0.36,13
1.1,0.49,13
1.11,0.51,13
1.11,0.4,13
1.1,0.47,13
1.12,0.56,13
1.13,0.44,13
1.11,0.43,13
1.12,0.55,13
1.13,0.49,13
1.12,0.4,13
1.11,0.53,13
1.13,0.54,13
1.13,0.42,13
1.12,0.48,13
1.13,0.57,13
1.14,0.43,13
1.13,0.42,13
1.13,0.54,13
1.14,0.48,13
1.13,0.39,13
1.12,0.52,13
1.13,0.53,13
1.12,0.4,13
1.11,0.45,13
1.12,0.54,13
1.13,0.42,13
1.12,0.41,13
1.12,0.55,13
1.14,0.48,13
1.12,0.41,13
1.11,0.52,13
1.13,0.52,13
1.12,0.38,13
1.11,0.43,13
1.13,0.51,13
1.14,0.38,13
1.13,0.37,13
1.14,0.49,13
1.15,0.43,13
1.13,0.35,13
1.12,0.47,13
1.13,0.48,13
1.13,0.36,13
1.13,0.42,13
1.15,0.5,13
1.16,0.38,13
1.16,0.37,13
1.16,0.49,13
1.16,0.43,13
1.16,0.35,13
1.15,0.47,13
1.17,0.47,13
1.17,0.36,13
1.16,0.42,13
1.18,0.5,13
1.19,0.38,13
1.18,0.38,13
1.18,0.49,13
1.19,0.43,13
1.18,0.35,13
1.17,0.48,13
1.19,0.49,13
1.19,0.38,13
1.18,0.44,13
1.19,0.52,13
1.2,0.39,13
1.19,0.37,13
1.19,0.48,13
1.21,0.43,13
1.21,0.35,13
1.2,0.47,13
1.21,0.47,13
1.21,0.36,13
1.19,0.41,13
1.2,0.49,13
1.2,0.37,13
1.19,0.37,13
1.19,0.49,13
1.2,0.42,13
1.19,0.34,13
1.18,0.47,13
1.19,0.47,13
1.19,0.35,13
1.17,0.42,13
1.19,0.5,13
1.2,0.37,13
1.18,0.37,13
1.19,0.49,13
1.2,0.42,13
1.19,0.34,13
1.18,0.47,13
1.19,0.47,13
1.19,0.35,13
1.17,0.42,13
1.19,0.5,13
1.2,0.37,13
1.18,0.38,13
1.18,0.49,13
1.2,0.43,13
1.18,0.35,13
1.18,0.47,13
1.2,0.47,13
1.19,0.35,13
1.18,0.42,13
1.19,0.5,13
1.2,0.37,13
1.18,0.38,13
1.19,0.49,13
1.2,0.43,13
1.19,0.35,13
1.18,0.48,13
1.19,0.47,13
1.19,0.36,13
1.18,0.43,13
1.19,0.5,14
1.2,0.37,14
1.18,0.37,14
1.19,0.49,14
1.2,0.42,14
1.18,0.34,14
1.18,0.47,14
1.19,0.47,14
1.19,0.35,14
1.18,0.42,14
1.2,0.5,14
1.21,0.37,14
1.19,0.38,14
1.2,0.49,14
1.21,0.42,14
1.2,0.35,14
1.19,0.47,14
1.2,0.47,14
1.2,0.35,14
1.18,0.42,14
1.2,0.5,14
1.2,0.37,14
1.19,0.37,14
1.19,0.49,14
1.21,0.42,14
1.2,0.35,14
1.2,0.47,14
1.21,0.47,14
1.21,0.35,14
1.19,0.42,14
1.2,0.49,14
1.2,0.37,14
1.19,0.38,14
1.2,0.49,14
1.22,0.42,14
1.2,0.34,14
1.2,0.47,14
1.21,0.47,14
1.2,0.35,14
1.19,0.42,14
1.21,0.49,14
1.21,0.36,14
1.2,0.37,14
1.2,0.48,14
1.21,0.41,14
1.2,0.34,14
1.19,0.47,14
1.21,0.46,14
1.21,0.35,14
1.19,0.42,14
1.21,0.5,14
1.21,0.38,14
1.2,0.38,14
1.21,0.5,14
1.22,0.43,14
1.21,0.34,14
1.21,0.47,14
1.22,0.46,14
1.22,0.34,14
1.21,0.42,14
1.22,0.49,14
1.22,0.36,14
1.21,0.37,14
1.21,0.49,14
1.23,0.41,14
1.22,0.34,14
1.22,0.47,14
