horizontal,vertical,label
1.22,0.43,34
1.22,0.55,34
1.23,0.5,34
1.22,0.42,34
1.2,0.52,34
1.21,0.54,34
1.21,0.43,34
1.2,0.47,34
1.2,0.56,34
1.22,0.45,34
1.21,0.43,34
1.21,0.54,34
1.22,0.5,34
1.22,0.41,34
1.21,0.52,34
1.21,0.54,34
1.21,0.42,34
1.2,0.47,34
1.2,0.56,34
1.21,0.46,34
1.2,0.44,34
1.19,0.55,34
1.2,0.5,34
1.2,0.42,34
1.18,0.52,34
1.19,0.54,34
1.19,0.42,34
1.19,0.47,34
1.2,0.55,34
1.22,0.45,34
1.21,0.42,34
1.22,0.53,34
1.23,0.49,34
1.23,0.4,34
1.22,0.5,34
1.23,0.52,34
1.23,0.41,34
1.22,0.45,34
1.22,0.53,34
1.22,0.43,34
1.21,0.41,34
1.21,0.52,34
1.22,0.49,34
1.22,0.4,34
1.21,0.5,34
1.21,0.53,34
1.21,0.41,34
1.2,0.45,34
1.2,0.54,34
1.21,0.44,34
1.2,0.42,34
1.2,0.54,34
1.21,0.49,34
1.21,0.4,34
1.2,0.5,34
1.21,0.53,34
1.21,0.41,34
1.2,0.45,34
1.2,0.54,34
1.22,0.44,34
1.21,0.42,34
1.21,0.53,34
1.22,0.49,34
1.22,0.4,34
1.21,0.5,34
1.22,0.52,34
1.22,0.41,34
1.21,0.44,34
1.22,0.54,34
1.23,0.44,34
1.22,0.41,34
1.22,0.53,34
1.24,0.49,34
1.24,0.4,34
1.23,0.5,34
1.24,0.53,34
1.24,0.42,34
1.23,0.46,34
1.23,0.55,34
1.24,0.46,34
1.23,0.43,34
1.23,0.55,34
1.24,0.51,34
1.25,0.42,34
1.23,0.52,34
1.24,0.55,34
1.25,0.43,34
1.24,0.46,34
1.24,0.56,34
1.25,0.46,34
1.24,0.43,34
1.24,0.55,34
1.25,0.52,34
1.25,0.42,34
1.24,0.52,34
1.25,0.55,34
1.26,0.43,34
1.24,0.47,34
1.24,0.57,34
1.25,0.47,34
1.24,0.44,34
1.24,0.56,34
1.25,0.52,34
1.25,0.43,34
1.24,0.53,34
1.25,0.56,34
1.25,0.45,34
1.24,0.48,34
1.24,0.58,34
1.25,0.48,34
1.25,0.45,34
1.24,0.57,34
1.25,0.54,34
1.25,0.45,34
1.23,0.55,34
1.24,0.59,34
1.24,0.47,34
1.23,0.51,34
1.23,0.61,34
1.25,0.52,34
1.24,0.48,34
1.24,0.6,34
1.25,0.57,34
1.25,0.47,34
1.24,0.56,34
1.25,0.6,34
1.25,0.48,34
1.24,0.51,34
1.24,0.61,34
1.26,0.51,34
1.25,0.47,34
1.25,0.59,34
1.26,0.56,34
1.25,0.46,34
1.24,0.55,34
1.25,0.59,34
1.25,0.47,34
1.23,0.5,34
1.24,0.6,34
1.25,0.52,34
1.24,0.48,34
1.24,0.6,34
1.25,0.57,34
1.25,0.47,34
1.24,0.57,34
1.25,0.61,34
1.26,0.49,34
1.24,0.52,34
1.25,0.62,34
1.26,0.53,34
1.25,0.48,34
1.25,0.61,34
1.26,0.58,34
1.26,0.48,34
1.24,0.56,34
1.25,0.61,34
1.25,0.48,34
1.24,0.51,34
1.24,0.61,34
1.26,0.52,34
1.25,0.48,34
1.24,0.6,34
1.25,0.57,34
1.25,0.47,34
1.23,0.56,34
1.25,0.61,34
1.25,0.48,34
1.24,0.51,34
1.24,0.61,34
1.26,0.53,34
1.25,0.48,34
1.25,0.6,34
1.26,0.58,34
1.26,0.48,34
1.24,0.56,34
1.25,0.61,34
1.25,0.48,34
1.24,0.51,34
1.24,0.61,34
1.26,0.53,34
1.24,0.48,34
1.24,0.6,34
1.26,0.58,34
1.26,0.47,34
1.24,0.56,34
1.26,0.6,34
1.26,0.48,34
1.25,0.5,34
1.26,0.61,34
1.27,0.52,34
1.26,0.47,34
1.26,0.6,34
1.28,0.58,34
1.27,0.47,34
1.26,0.55,34
1.27,0.6,34
1.28,0.48,34
1.26,0.5,34
1.27,0.61,34
1.28,0.53,34
1.26,0.48,34
1.26,0.6,34
1.27,0.58,34
1.27,0.47,34
1.25,0.55,34
1.27,0.61,34
1.27,0.49,34
1.26,0.5,34
1.26,0.61,34
1.28,0.53,34
1.26,0.48,34
1.26,0.6,34
1.27,0.58,34
1.27,0.48,34
1.26,0.56,34
1.28,0.62,34
1.29,0.5,34
1.28,0.52,34
1.28,0.62,34
1.3,0.55,34
1.28,0.49,34
1.28,0.61,34
1.29,0.6,34
1.29,0.49,34
1.27,0.57,34
1.29,0.62,34
1.29,0.5,34
1.28,0.52,34
1.28,0.63,34
1.3,0.55,34
1.28,0.5,34
1.27,0.62,34
1.28,0.6,34
1.28,0.49,34
1.27,0.57,34
1.28,0.63,34
1.29,0.51,34
1.27,0.52,34
1.28,0.63,34
1.29,0.56,34
1.27,0.49,34
1.27,0.61,34
1.28,0.6,34
1.28,0.5,34
1.27,0.58,34
1.29,0.64,34
1.29,0.53,34
1.28,0.54,34
1.28,0.65,34
1.29,0.58,34
1.27,0.52,34
1.27,0.64,34
1.28,0.63,34
1.28,0.53,34
1.27,0.6,34
1.29,0.66,34
1.29,0.55,34
1.28,0.56,34
1.29,0.67,34
1.3,0.6,34
1.29,0.54,34
1.28,0.66,34
1.3,0.65,34
1.3,0.54,34
1.29,0.61,34
1.3,0.68,34
1.31,0.56,34
1.29,0.57,34
1.29,0.68,34
1.31,0.61,34
1.29,0.54,34
1.29,0.67,34
1.3,0.66,34
1.3,0.55,34
1.29,0.63,34
1.3,0.7,34
1.31,0.58,34
1.3,0.59,34
1.3,0.7,34
1.31,0.64,34
1.29,0.57,34
1.29,0.69,34
1.3,0.7,34
1.3,0.59,34
1.29,0.66,34
1.31,0.73,34
1.32,0.61,34
1.31,0.61,34
1.31,0.72,34
1.32,0.66,34
1.3,0.59,34
1.3,0.71,34
1.31,0.71,34
1.31,0.6,34
1.3,0.66,34
1.32,0.73,34
1.33,0.61,34
1.32,0.61,34
1.33,0.72,34
1.34,0.66,34
1.32,0.59,34
1.31,0.71,34
1.32,0.71,34
1.32,0.6,34
1.31,0.67,34
1.32,0.75,34
1.34,0.63,34
1.33,0.63,34
1.33,0.74,34
1.34,0.68,34
1.33,0.62,34
1.32,0.74,34
1.32,0.75,34
1.32,0.63,34
1.31,0.7,34
1.32,0.77,34
1.33,0.66,34
1.32,0.65,34
1.32,0.77,34
1.33,0.71,34
1.31,0.64,34
1.3,0.76,34
1.31,0.77,34
1.31,0.66,34
1.3,0.72,34
1.32,0.8,34
1.33,0.69,34
1.33,0.67,34
1.33,0.79,34
1.34,0.73,34
1.33,0.65,34
1.32,0.77,34
1.33,0.78,34
1.33,0.66,34
1.32,0.72,34
1.34,0.8,34
1.35,0.69,34
1.34,0.68,34
1.34,0.8,34
1.36,0.75,34
1.35,0.67,34
1.34,0.78,34
1.35,0.8,34
1.36,0.69,34
1.35,0.75,34
1.36,0.83,34
1.37,0.72,34
1.35,0.7,34
1.35,0.82,34
1.36,0.76,34
1.36,0.68,34
1.35,0.8,34
1.36,0.82,34
1.36,0.71,34
1.35,0.76,34
1.36,0.84,34
1.37,0.73,34
1.36,0.72,34
1.36,0.84,34
1.37,0.78,34
1.37,0.71,34
1.36,0.82,34
1.37,0.83,34
1.37,0.72,34
1.36,0.78,34
1.36,0.86,34
1.37,0.75,34
1.36,0.74,34
1.37,0.86,34
1.38,0.81,34
1.38,0.73,34
1.37,0.84,34
1.38,0.86,34
1.38,0.75,34
1.37,0.8,34
1.37,0.89,34
1.38,0.78,34
1.37,0.77,34
1.38,0.89,34
1.39,0.84,34
1.39,0.75,34
1.38,0.87,34
1.39,0.88,34
1.38,0.77,34
1.37,0.82,34
1.38,0.91,34
1.39,0.8,34
1.39,0.79,34
1.39,0.9,34
1.4,0.85,34
1.4,0.77,34
1.39,0.88,34
1.41,0.9,34
1.41,0.78,34
1.41,0.84,34
1.41,0.93,34
1.43,0.82,34
1.42,0.8,34
1.43,0.92,34
1.43,0.88,34
1.43,0.8,34
1.41,0.91,34
1.42,0.93,34
1.42,0.82,34
1.41,0.86,34
1.41,0.95,34
1.43,0.84,34
1.42,0.83,34
1.42,0.95,34
1.43,0.9,34
1.43,0.81,34
1.42,0.92,34
1.44,0.94,34
1.44,0.83,34
1.43,0.88,34
1.43,0.97,34
1.44,0.86,34
1.43,0.84,34
1.44,0.96,34
1.45,0.92,34
1.45,0.83,34
1.44,0.93,34
1.45,0.96,34
1.45,0.84,34
1.43,0.89,34
1.43,0.98,34
1.45,0.89,34
1.44,0.87,34
1.44,0.99,34
1.46,0.95,34
1.46,0.86,34
1.45,0.96,34
1.46,0.99,34
1.46,0.87,34
1.45,0.92,34
1.46,1.01,34
1.48,0.92,34
1.47,0.89,34
1.47,1.01,34
1.48,0.97,34
1.48,0.88,34
1.47,0.97,34
1.48,0.99,34
1.48,0.87,34
1.48,0.91,34
1.48,1.0,34
1.49,0.91,34
1.48,0.88,34
1.48,1.01,34
1.49,0.97,34
1.49,0.88,34
1.48,0.97,34
1.49,1.0,34
1.49,0.88,34
1.48,0.92,34
1.48,1.01,34
1.5,0.92,34
1.49,0.89,34
1.49,1.01,34
1.5,0.97,34
1.5,0.87,34
1.49,0.97,34
1.5,1.0,34
1.5,0.88,34
1.49,0.92,34
1.49,1.02,34
1.51,0.92,34
1.51,0.89,34
1.52,1.01,34
1.54,0.98,34
1.57,0.88,34
1.57,0.98,34
1.61,1.01,34
1.64,0.9,34
1.66,0.94,34
1.69,1.04,34
1.73,0.94,34
1.74,0.91,34
1.76,1.04,34
1.8,1.0,34
1.81,0.91,34
1.82,1.01,34
1.85,1.05,34
1.87,0.93,34
1.87,0.97,34
1.89,1.07,34
1.9,0.99,34
1.9,0.96,34
1.91,1.09,34
1.94,1.07,34
1.95,0.98,34
1.95,1.09,34
1.96,1.13,34
1.96,1.02,34
1.96,1.06,34
1.96,1.17,34
1.96,1.08,34
1.96,1.05,34
1.96,1.18,34
1.96,1.15,34
1.96,1.05,34
1.96,1.15,34
1.96,1.2,34
1.96,1.08,34
1.96,1.11,34
1.96,1.22,34
1.96,1.13,34
1.96,1.09,34
1.96,1.22,34
1.96,1.19,34
1.96,1.09,34
1.96,1.18,34
1.96,1.22,34
1.96,1.1,34
1.96,1.13,34
1.96,1.23,34
1.96,1.14,34
1.96,1.1,34
1.96,1.21,34
1.96,1.18,34
1.96,1.07,34
1.96,1.16,34
1.96,1.2,34
1.96,1.08,34
1.96,1.11,34
1.96,1.21,34
1.96,1.12,34
1.96,1.08,34
1.96,1.2,34
1.96,1.17,34
1.96,1.06,34
1.96,1.15,34
1.96,1.19,34
1.96,1.07,34
1.96,1.09,34
1.96,1.19,34
1.96,1.1,34
1.96,1.05,34
1.96,1.17,34
1.96,1.14,34
1.96,1.04,34
1.96,1.12,34
1.96,1.17,34
1.96,1.05,34
1.96,1.07,34
1.96,1.17,34
1.96,1.09,34
1.96,1.04,34
1.96,1.16,34
1.96,1.13,34
1.96,1.02,34
1.96,1.11,34
1.96,1.15,34
1.96,1.03,34
1.96,1.06,34
1.96,1.16,34
1.96,1.07,34
1.96,1.02,34
1.96,1.14,34
1.96,1.11,34
1.96,1.01,34
1.96,1.09,34
1.96,1.14,34
1.96,1.01,34
1.95,1.03,34
1.95,1.14,34
1.95,1.05,34
1.95,1.0,34
1.95,1.12,34
1.95,1.09,34
1.95,0.98,34
1.95,1.06,34
1.96,1.11,34
1.96,0.98,34
1.95,1.0,34
1.95,1.1,34
1.95,1.02,34
1.94,0.97,34
1.94,1.09,34
1.95,1.07,34
1.95,0.97,34
1.95,1.05,34
1.96,1.1,34
1.96,0.98,34
1.94,0.99,34
1.94,1.1,34
1.94,1.02,34
1.93,0.96,34
1.93,1.08,34
1.94,1.06,34
1.94,0.95,34
1.94,1.02,34
1.95,1.07,34
1.94,0.94,34
1.91,0.95,34
1.89,1.06,34
1.87,0.98,34
1.82,0.91,34
1.78,1.02,34
1.75,1.0,34
1.71,0.88,34
1.66,0.95,34
1.63,1.0,34
1.6,0.87,34
1.55,0.88,34
1.52,0.97,34
1.5,0.88,34
1.45,0.82,34
1.42,0.93,34
1.41,0.9,34
1.39,0.79,34
1.36,0.86,34
1.36,0.91,34
1.35,0.78,34
1.33,0.79,34
1.32,0.89,34
1.33,0.81,34
1.32,0.75,34
1.31,0.86,34
1.32,0.85,34
1.32,0.74,34
1.31,0.81,34
1.33,0.86,34
1.34,0.74,34
1.33,0.74,34
1.33,0.85,34
1.35,0.78,34
1.34,0.72,34
1.33,0.83,34
1.35,0.82,34
1.35,0.71,34
1.34,0.78,34
1.35,0.84,34
1.36,0.72,34
1.35,0.72,34
1.35,0.82,34
1.36,0.75,34
1.34,0.68,34
1.33,0.8,34
1.34,0.78,34
1.34,0.67,34
1.32,0.74,34
1.34,0.8,34
1.34,0.68,34
1.33,0.68,34
1.33,0.79,34
1.34,0.72,34
1.33,0.65,34
1.33,0.76,34
1.34,0.75,34
1.34,0.64,34
1.33,0.71,34
1.34,0.77,34
1.35,0.65,34
1.34,0.64,34
1.34,0.74,34
1.35,0.67,34
1.34,0.6,34
1.33,0.72,34
1.33,0.72,34
1.33,0.61,34
1.32,0.68,34
1.33,0.75,34
1.34,0.63,34
1.33,0.63,34
1.33,0.73,34
1.34,0.66,34
1.33,0.6,34
1.32,0.71,34
1.33,0.71,34
1.33,0.6,34
1.32,0.67,34
1.33,0.74,34
1.34,0.62,34
1.33,0.62,34
1.33,0.73,34
1.34,0.67,34
1.33,0.6,34
1.32,0.71,34
1.34,0.71,34
1.34,0.59,34
1.32,0.66,34
1.34,0.72,34
1.34,0.61,34
1.33,0.6,34
1.33,0.71,34
1.35,0.65,34
1.34,0.58,34
1.34,0.69,34
1.35,0.7,34
1.35,0.59,34
1.34,0.65,34
1.35,0.72,34
1.36,0.61,34
1.35,0.61,34
1.35,0.72,34
1.36,0.66,34
1.35,0.59,34
1.34,0.7,34
1.35,0.7,34
1.35,0.59,34
1.34,0.65,34
1.34,0.72,34
1.35,0.61,34
1.34,0.61,34
1.34,0.72,34
1.35,0.66,34
1.34,0.58,34
1.33,0.7,34
1.34,0.71,34
1.34,0.6,34
1.33,0.66,34
1.34,0.74,34
1.36,0.62,34
1.35,0.61,34
1.35,0.72,34
1.36,0.67,34
1.35,0.59,34
1.33,0.7,34
1.34,0.7,34
1.35,0.59,34
1.34,0.65,34
1.35,0.72,34
1.36,0.61,34
1.35,0.6,34
1.34,0.72,34
1.35,0.66,34
1.34,0.58,34
1.33,0.68,34
1.34,0.69,34
1.34,0.58,34
1.33,0.63,34
1.34,0.71,34
1.35,0.6,34
1.34,0.59,34
1.34,0.7,34
1.35,0.64,34
1.34,0.56,34
1.33,0.67,34
1.35,0.69,34
1.35,0.58,34
1.34,0.63,34
1.35,0.71,34
1.36,0.6,34
1.35,0.58,34
1.35,0.69,34
1.36,0.64,34
1.36,0.56,34
1.35,0.67,34
1.36,0.68,34
1.36,0.56,34
1.35,0.62,34
1.35,0.7,34
1.36,0.59,34
1.35,0.57,34
1.35,0.69,34
1.36,0.64,34
1.35,0.55,34
1.34,0.66,34
1.35,0.67,34
1.35,0.56,34
1.33,0.61,34
1.34,0.69,34
1.35,0.59,34
1.34,0.58,34
1.34,0.69,34
1.35,0.64,34
1.35,0.55,34
1.33,0.66,34
1.34,0.67,34
1.34,0.56,34
1.34,0.61,34
1.34,0.69,34
1.35,0.58,34
1.34,0.56,34
1.34,0.68,34
1.35,0.63,34
1.35,0.54,34
1.34,0.65,34
1.35,0.67,34
1.34,0.55,34
1.33,0.6,34
1.33,0.69,34
1.35,0.58,34
1.33,0.56,34
1.33,0.68,34
1.34,0.63,34
1.33,0.54,34
1.32,0.64,34
1.33,0.66,34
1.33,0.54,34
1.32,0.58,34