horizontal,vertical,label
1.69,1.03,2
1.7,1.06,2
1.71,0.95,2
1.7,0.98,2
1.69,1.07,2
1.71,0.99,2
1.7,0.96,2
1.69,1.07,2
1.7,1.04,2
1.7,0.95,2
1.69,1.04,2
1.7,1.06,2
1.7,0.96,2
1.7,0.99,2
1.7,1.08,2
1.71,0.99,2
1.7,0.96,2
1.7,1.06,2
1.71,1.03,2
1.71,0.94,2
1.69,1.03,2
1.7,1.06,2
1.7,0.95,2
1.7,0.98,2
1.7,1.06,2
1.71,0.97,2
1.71,0.94,2
1.7,1.05,2
1.71,1.02,2
1.71,0.93,2
1.7,1.02,2
1.71,1.05,2
1.71,0.94,2
1.7,0.97,2
1.7,1.06,2
1.72,0.97,2
1.71,0.94,2
1.7,1.05,2
1.7,1.01,2
1.7,0.92,2
1.68,1.01,2
1.69,1.04,2
1.7,0.93,2
1.69,0.96,2
1.69,1.05,2
1.71,0.95,2
1.71,0.92,2
1.7,1.03,2
1.71,0.99,2
1.72,0.91,2
1.7,1.0,2
1.7,1.02,2
1.71,0.91,2
1.7,0.94,2
1.7,1.03,2
1.72,0.94,2
1.71,0.91,2
1.7,1.02,2
1.72,0.98,2
1.72,0.9,2
1.7,0.98,2
1.71,1.01,2
1.71,0.9,2
1.7,0.94,2
1.7,1.03,2
1.72,0.94,2
1.71,0.91,2
1.7,1.02,2
1.71,0.98,2
1.71,0.9,2
1.69,0.99,2
1.7,1.01,2
1.7,0.9,2
1.7,0.94,2
1.69,1.02,2
1.71,0.93,2
1.7,0.9,2
1.7,1.0,2
1.7,0.96,2
1.71,0.87,2
1.69,0.96,2
1.69,0.99,2
1.7,0.88,2
1.69,0.92,2
1.68,1.0,2
1.7,0.91,2
1.69,0.88,2
1.69,0.99,2
1.7,0.95,2
1.7,0.87,2
1.68,0.96,2
1.69,0.98,2
1.69,0.87,2
1.68,0.91,2
1.67,0.99,2
1.69,0.9,2
1.68,0.88,2
1.67,0.98,2
1.68,0.95,2
1.68,0.86,2
1.66,0.94,2
1.67,0.97,2
1.67,0.86,2
1.66,0.9,2
1.66,0.99,2
1.67,0.9,2
1.67,0.87,2
1.66,0.98,2
1.68,0.95,2
1.68,0.86,2
1.66,0.95,2
1.67,0.97,2
1.67,0.87,2
1.65,0.9,2
1.65,0.98,2
1.67,0.89,2
1.66,0.86,2
1.65,0.97,2
1.66,0.93,2
1.66,0.85,2
1.64,0.93,2
1.65,0.96,2
1.65,0.85,2
1.65,0.89,2
1.65,0.97,2
1.67,0.89,2
1.66,0.86,2
1.66,0.97,2
1.67,0.93,2
1.67,0.85,2
1.65,0.93,2
1.66,0.96,2
1.66,0.85,2
1.65,0.89,2
1.65,0.98,2
1.67,0.89,2
1.66,0.87,2
1.66,0.97,2
1.67,0.93,2
1.67,0.85,2
1.65,0.93,2
1.66,0.96,2
1.66,0.85,2
1.65,0.88,2
1.65,0.96,2
1.66,0.88,2
1.65,0.86,2
1.64,0.96,2
1.65,0.93,2
1.66,0.84,2
1.64,0.92,2
1.65,0.95,2
1.65,0.84,2
1.64,0.88,2
1.64,0.96,2
1.66,0.88,2
1.65,0.85,2
1.65,0.96,2
1.66,0.92,2
1.66,0.84,2
1.64,0.92,2
1.65,0.95,2
1.65,0.84,2
1.65,0.88,2
1.65,0.96,2
1.66,0.87,2
1.66,0.85,2
1.65,0.96,2
1.66,0.92,2
1.67,0.84,2
1.65,0.92,2
1.66,0.94,2
1.66,0.83,2
1.65,0.87,2
1.65,0.95,2
1.66,0.87,2
1.66,0.85,2
1.66,0.95,2
1.67,0.92,2
1.67,0.83,2
1.65,0.92,2
1.65,0.94,2
1.64,0.83,2
1.63,0.87,2
1.62,0.95,2
1.63,0.86,2
1.62,0.83,2
1.62,0.94,2
1.63,0.9,2
1.63,0.81,2
1.62,0.91,2
1.62,0.93,2
1.62,0.82,2
1.62,0.86,2
1.61,0.94,2
1.63,0.85,2
1.63,0.82,2
1.63,0.93,2
1.65,0.89,2
1.67,0.81,2
1.67,0.9,2
1.68,0.92,2
1.7,0.82,2
1.69,0.85,2
1.7,0.93,2
1.72,0.84,2
1.72,0.82,2
1.71,0.93,2
1.72,0.88,2
1.72,0.8,2
1.7,0.89,2
1.71,0.92,2
1.72,0.81,2
1.71,0.85,2
1.71,0.93,2
1.72,0.84,2
1.71,0.82,2
1.71,0.92,2
1.72,0.88,2
1.72,0.79,2
1.7,0.89,2
1.71,0.91,2
1.72,0.8,2
1.71,0.84,2
1.71,0.92,2
1.72,0.82,2
1.71,0.8,2
1.7,0.9,2
1.71,0.86,2
1.72,0.77,2
1.7,0.87,2
1.71,0.89,2
1.71,0.78,2
1.7,0.82,2
1.69,0.91,2
1.7,0.81,2
1.69,0.79,2
1.68,0.9,2
1.69,0.86,2
1.69,0.78,2
1.67,0.88,2
1.68,0.9,2
1.69,0.79,2
1.67,0.83,2
1.66,0.91,2
1.68,0.81,2
1.66,0.79,2
1.66,0.9,2
1.67,0.87,2
1.67,0.79,2
1.66,0.89,2
1.66,0.91,2
1.67,0.81,2
1.65,0.85,2
1.65,0.94,2
1.67,0.85,2
1.66,0.83,2
1.66,0.94,2
1.67,0.91,2
1.66,0.83,2
1.65,0.92,2
1.65,0.94,2
1.65,0.84,2
1.63,0.88,2
1.63,0.96,2
1.64,0.87,2
1.63,0.85,2
1.63,0.96,2
1.64,0.92,2
1.64,0.85,2
1.63,0.95,2
1.64,0.96,2
1.64,0.86,2
1.63,0.9,2
1.63,0.98,2
1.64,0.9,2
1.63,0.89,2
1.63,0.99,2
1.64,0.95,2
1.64,0.87,2
1.63,0.96,2
1.64,0.98,2
1.64,0.88,2
1.63,0.93,2
1.63,1.02,2
1.64,0.93,2
1.63,0.91,2
1.63,1.02,2
1.64,0.99,2
1.64,0.91,2
1.62,1.01,2
1.63,1.03,2
1.63,0.93,2
1.62,0.97,2
1.61,1.06,2
1.63,0.96,2
1.62,0.95,2
1.61,1.06,2
1.62,1.02,2
1.62,0.94,2
1.61,1.04,2
1.62,1.06,2
1.62,0.96,2
1.61,1.01,2
1.61,1.09,2
1.62,0.99,2
1.62,0.98,2
1.61,1.09,2
1.63,1.05,2
1.63,0.97,2
1.61,1.07,2
1.62,1.09,2
1.63,0.98,2
1.62,1.03,2
1.62,1.12,2
1.63,1.02,2
1.62,1.01,2
1.62,1.12,2
1.63,1.08,2
1.63,1.0,2
1.61,1.1,2
1.63,1.11,2
1.63,1.01,2
1.62,1.06,2
1.63,1.14,2
1.65,1.05,2
1.64,1.04,2
1.64,1.14,2
1.66,1.1,2
1.67,1.02,2
1.66,1.12,2
1.67,1.13,2
1.68,1.03,2
1.67,1.07,2
1.66,1.15,2
1.68,1.06,2
1.66,1.05,2
1.66,1.15,2
1.68,1.11,2
1.68,1.03,2
1.67,1.13,2
1.67,1.14,2
1.68,1.04,2
1.66,1.08,2
1.66,1.16,2
1.67,1.06,2
1.66,1.05,2
1.66,1.16,2
1.67,1.11,2
1.66,1.03,2
1.65,1.13,2
1.66,1.14,2
1.66,1.04,2
1.65,1.08,2
1.64,1.16,2
1.66,1.06,2
1.65,1.05,2
1.65,1.16,2
1.66,1.11,2
1.66,1.03,2
1.65,1.13,2
1.66,1.14,2
1.66,1.04,2
1.65,1.09,2
1.65,1.16,2
1.67,1.06,2
1.66,1.05,2
1.66,1.16,2
1.67,1.11,2
1.67,1.04,2
1.66,1.14,2
1.67,1.15,2
1.67,1.04,2
1.66,1.09,2
1.65,1.16,2
1.67,1.06,2
1.67,1.05,2
1.67,1.16,2
1.68,1.11,2
1.69,1.03,2
1.67,1.14,2
1.69,1.15,2
1.69,1.04,2
1.68,1.08,2
1.69,1.16,2
1.71,1.05,2
1.7,1.04,2
1.69,1.15,2
1.7,1.1,2
1.7,1.03,2
1.68,1.13,2
1.69,1.13,2
1.69,1.03,2
1.68,1.07,2
1.69,1.15,2
1.7,1.04,2
1.69,1.04,2
1.69,1.14,2
1.7,1.09,2
1.69,1.01,2
1.68,1.11,2
1.68,1.12,2
1.68,1.01,2
1.68,1.07,2
1.68,1.14,2
1.7,1.04,2
1.7,1.03,2
1.69,1.13,2
1.7,1.08,2
1.69,1.01,2
1.67,1.11,2
1.68,1.11,2
1.69,1.01,2
1.68,1.06,2
1.69,1.13,2
1.7,1.02,2
1.69,1.01,2
1.69,1.11,2
1.69,1.06,2
1.69,0.99,2
1.68,1.1,2
1.69,1.11,2
1.69,1.01,2
1.69,1.07,2
1.69,1.14,2
1.7,1.03,2
1.69,1.03,2
1.69,1.13,2
1.7,1.08,2
1.69,1.01,2
1.68,1.11,2
1.68,1.11,2
1.68,1.01,2
1.67,1.06,2
1.68,1.12,2
1.7,1.02,2
1.69,1.01,2
1.68,1.12,2
1.67,1.06,2
1.64,0.98,2
1.6,1.07,2
1.59,1.06,2
1.56,0.94,2
1.52,0.97,2
1.5,1.03,2
1.48,0.91,2
1.44,0.89,2
1.41,0.98,2
1.39,0.92,2
1.36,0.84,2
1.31,0.93,2
1.3,0.93,2
1.27,0.82,2
1.23,0.87,2
1.21,0.93,2
1.2,0.82,2
1.17,0.81,2
1.15,0.9,2
1.15,0.84,2
1.13,0.77,2
1.1,0.87,2
1.11,0.87,2
1.1,0.76,2
1.08,0.81,2
1.07,0.88,2
1.08,0.77,2
1.05,0.77,2
1.04,0.87,2
1.04,0.81,2
1.03,0.74,2
1.02,0.84,2
1.03,0.85,2
1.04,0.74,2
1.03,0.8,2
1.03,0.87,2
1.05,0.76,2
1.04,0.75,2
1.04,0.85,2
1.06,0.79,2
1.05,0.72,2
1.05,0.82,2
1.06,0.82,2
1.07,0.72,2
1.06,0.77,2
1.06,0.83,2
1.08,0.72,2
1.07,0.72,2
1.07,0.82,2
1.08,0.77,2
1.08,0.7,2
1.06,0.8,2
1.07,0.8,2
1.08,0.7,2
1.07,0.76,2
1.08,0.82,2
1.1,0.72,2
1.09,0.72,2
1.09,0.81,2
1.1,0.76,2
1.08,0.68,2
1.06,0.78,2
1.06,0.78,2
1.06,0.68,2
1.04,0.74,2
1.05,0.8,2
1.06,0.7,2
1.06,0.68,2
1.05,0.78,2
1.07,0.73,2
1.06,0.66,2
1.05,0.76,2
1.07,0.77,2
1.08,0.66,2
1.07,0.71,2
1.09,0.77,2
1.1,0.67,2
1.1,0.67,2
1.09,0.76,2
1.11,0.7,2
1.1,0.64,2
1.09,0.73,2
1.1,0.74,2
1.1,0.63,2
1.09,0.69,2
1.1,0.75,2
1.12,0.65,2
1.11,0.65,2
1.11,0.74,2
1.12,0.68,2
1.11,0.62,2
1.1,0.72,2
1.11,0.73,2
1.13,0.63,2
1.12,0.68,2
1.13,0.74,2
1.15,0.63,2
1.14,0.63,2
1.13,0.73,2
1.14,0.67,2
1.13,0.6,2
1.12,0.7,2
1.13,0.7,2
1.14,0.6,2
1.13,0.65,2
1.14,0.71,2
1.16,0.61,2
1.15,0.61,2
1.15,0.7,2
1.17,0.64,2
1.18,0.57,2
1.17,0.67,2
1.18,0.67,2
1.19,0.57,2
1.17,0.63,2
1.17,0.69,2
1.17,0.58,2
1.16,0.58,2
1.17,0.68,2
1.2,0.63,2
1.21,0.57,2
1.24,0.68,2
1.29,0.68,2
1.33,0.59,2
1.36,0.66,2
1.4,0.72,2
1.46,0.63,2
1.49,0.63,2
1.52,0.74,2
1.57,0.69,2
1.59,0.64,2
1.62,0.75,2
1.66,0.76,2
1.7,0.67,2
1.71,0.74,2
1.75,0.81,2
1.78,0.71,2
1.78,0.71,2
1.8,0.81,2
1.82,0.76,2
1.82,0.7,2
1.81,0.81,2
1.82,0.8,2
1.82,0.7,2
1.8,0.75,2
1.81,0.81,2
1.82,0.7,2
1.81,0.7,2
1.81,0.8,2
1.82,0.74,2
1.81,0.68,2
1.79,0.78,2
1.8,0.78,2
1.81,0.67,2
1.79,0.73,2
1.8,0.79,2
1.81,0.67,2
1.8,0.66,2
1.8,0.76,2
1.81,0.69,2
1.8,0.63,2
1.78,0.73,2
1.78,0.73,2
1.78,0.64,2
1.76,0.7,2
1.77,0.75,2
1.78,0.64,2
1.77,0.64,2
1.76,0.74,2
1.77,0.67,2
1.76,0.61,2
1.74,0.71,2
1.75,0.71,2
1.75,0.61,2
1.74,0.67,2
1.75,0.73,2
1.76,0.62,2
1.75,0.62,2
1.75,0.72,2
1.76,0.65,2
1.76,0.59,2
1.75,0.69,2
1.77,0.68,2
1.78,0.58,2
1.76,0.64,2
1.77,0.7,2
1.77,0.59,2
1.76,0.6,2
1.75,0.69,2
1.76,0.62,2
1.75,0.57,2
1.74,0.67,2
1.75,0.65,2
1.75,0.55,2
1.74,0.62,2
1.75,0.67,2
1.77,0.57,2
1.76,0.58,2
1.76,0.68,2
1.77,0.61,2
1.75,0.56,2
1.74,0.66,2
1.75,0.66,2
1.75,0.56,2
1.73,0.62,2
1.74,0.67,2
1.75,0.56,2
1.74,0.57,2
1.73,0.67,2
1.74,0.6,2
1.72,0.55,2
1.71,0.66,2
1.71,0.65,2
1.71,0.55,2
1.7,0.62,2
1.71,0.67,2
1.72,0.57,2
1.71,0.57,2
1.71,0.67,2
1.72,0.6,2
1.7,0.55,2
1.69,0.65,2
1.7,0.64,2
1.7,0.55,2
1.68,0.61,2
1.69,0.66,2
1.7,0.56,2
1.68,0.57,2
1.68,0.66,2
1.68,0.59,2
1.67,0.54,2
1.66,0.64,2
1.67,0.63,2
1.66,0.54,2
1.65,0.61,2
1.66,0.66,2
1.66,0.55,2
1.65,0.56,2
1.65,0.65,2
1.66,0.59,2
1.65,0.53,2
1.64,0.64,2
1.65,0.63,2
1.66,0.53,2
1.64,0.6,2
1.66,0.65,2
1.66,0.54,2
1.64,0.55,2
1.63,0.64,2
1.64,0.57,2
1.62,0.53,2
1.62,0.63,2
1.63,0.61,2
1.63,0.52,2
1.62,0.59,2
1.62,0.64,2
1.63,0.53,2
1.62,0.55,2
1.61,0.64,2
1.63,0.57,2
1.62,0.52,2
1.61,0.63,2
1.62,0.61,2
1.62,0.52,2
1.6,0.59,2
1.61,0.64,2
1.61,0.54,2
1.59,0.55,2
1.59,0.65,2
1.6,0.58,2
1.58,0.53,2
1.58,0.64,2
1.59,0.62,2
1.59,0.53,2
1.57,0.6,2
1.58,0.65,2
1.59,0.54,2
1.58,0.56,2
1.58,0.65,2
1.6,0.58,2
1.59,0.53,2
1.58,0.63,2
1.59,0.62,2
1.59,0.52,2
1.57,0.59,2
1.58,0.64,2
1.58,0.53,2
1.57,0.54,2
1.56,0.64,2
1.58,0.57,2
1.57,0.52,2
1.56,0.63,2
1.57,0.61,2
1.58,0.52,2
1.56,0.59,2
1.57,0.63,2
1.58,0.53,2
1.57,0.55,2
1.56,0.65,2
1.57,0.58,2
1.56,0.53,2
1.55,0.64,2
1.56,0.62,2
1.56,0.53,2
1.55,0.6,2
1.56,0.65,2
1.56,0.54,2
1.55,0.56,2
1.55,0.65,2
1.57,0.57,2
1.55,0.53,2
1.54,0.63,2
1.55,0.62,2
1.55,0.52,2
1.53,0.6,2
1.53,0.64,2
1.54,0.54,2
1.53,0.56,2
1.53,0.65,2
1.55,0.58,2
1.54,0.54,2
1.54,0.64,2
1.55,0.63,2
1.54,0.53,2
1.53,0.61,2
1.54,0.65,2
1.55,0.54,2
1.54,0.56,2
1.54,0.64,2
1.55,0.57,2
1.55,0.53,2
1.55,0.64,2
1.57,0.62,2
1.57,0.54,2
1.56,0.61,2
1.58,0.65,2
1.58,0.55,2
1.57,0.57,2
1.56,0.66,2
1.58,0.59,2
1.57,0.55,2
1.56,0.65,2
1.57,0.64,2
1.57,0.55,2
1.55,0.62,2
1.56,0.66,2
1.57,0.56,2
1.55,0.58,2
1.55,0.67,2
1.57,0.6,2
1.55,0.55,3
1.55,0.66,3
1.56,0.64,3
1.55,0.55,3
1.53,0.62,3
1.54,0.67,3
1.54,0.56,3
1.53,0.57,3
1.53,0.66,3
1.54,0.58,3
1.53,0.54,3
1.52,0.65,3
1.53,0.63,3
1.54,0.53,3
1.52,0.61,3
1.53,0.65,3
1.54,0.54,3
1.53,0.56,3
1.53,0.65,3
1.54,0.58,3
1.53,0.54,3
1.53,0.65,3
1.53,0.63,3
1.54,0.54,3
1.52,0.62,3
1.53,0.66,3
1.54,0.55,3
1.53,0.57,3
1.53,0.67,3
1.55,0.59,3
1.53,0.56,3
1.53,0.67,3
1.54,0.66,3
1.54,0.57,3
1.52,0.64,3
1.54,0.69,3
1.54,0.58,3
1.53,0.59,3
1.53,0.68,3
1.55,0.61,3
1.53,0.57,3
1.53,0.67,3
1.53,0.66,3
1.53,0.56,3
1.51,0.64,3
1.52,0.68,3
1.52,0.57,3
1.51,0.59,3
1.51,0.68,3
1.53,0.6,3
1.51,0.56,3
1.5,0.67,3
1.51,0.66,3
1.51,0.57,3
1.49,0.66,3
1.5,0.7,3
1.51,0.59,3
1.5,0.62,3
1.5,0.71,3
1.52,0.63,3
1.51,0.59,3
1.51,0.71,3
1.51,0.68,3
1.51,0.6,3
1.49,0.68,3
1.5,0.73,3
1.49,0.62,3
1.48,0.65,3
1.48,0.74,3
1.5,0.66,3
1.49,0.62,3
1.49,0.73,3
1.49,0.7,3
1.49,0.61,3
1.47,0.69,3
1.48,0.73,3
1.48,0.63,3
1.47,0.66,3
1.47,0.75,3
1.49,0.68,3
1.48,0.64,3
1.48,0.75,3
1.49,0.72,3
1.49,0.63,3
1.47,0.71,3
1.48,0.75,3
1.49,0.65,3
1.47,0.68,3
1.47,0.77,3
1.49,0.69,3
1.47,0.65,3
1.47,0.76,3
1.48,0.73,3
1.48,0.65,3
1.46,0.73,3
1.47,0.77,3
1.48,0.66,3
1.47,0.68,3
1.47,0.77,3
1.49,0.69,3
1.48,0.65,3
1.48,0.76,3
1.49,0.74,3
1.49,0.65,3
1.47,0.72,3
1.47,0.76,3
1.47,0.65,3
1.46,0.68,3
1.45,0.77,3
1.46,0.69,3
1.45,0.66,3
1.44,0.77,3
1.45,0.75,3
1.46,0.65,3
1.44,0.73,3
1.45,0.76,3
1.45,0.65,3
1.44,0.68,3
1.44,0.76,3
1.45,0.68,3
1.44,0.64,3
1.44,0.75,3
1.44,0.72,3
1.44,0.63,3
1.42,0.72,3
1.43,0.75,3
1.43,0.65,3
1.41,0.67,3
1.41,0.76,3
1.43,0.68,3
1.42,0.65,3
1.42,0.76,3
1.43,0.72,3
1.43,0.63,3
1.42,0.72,3
1.43,0.75,3
1.43,0.64,3
1.42,0.68,3
1.42,0.77,3
1.44,0.68,3
1.43,0.65,3
1.43,0.76,3
1.44,0.73,3
1.45,0.64,3
1.43,0.73,3
1.44,0.76,3
1.45,0.65,3
1.44,0.68,3
1.43,0.77,3
1.44,0.69,3
1.43,0.66,3
1.42,0.77,3
1.43,0.74,3
1.44,0.66,3
1.43,0.74,3
1.43,0.78,3
1.44,0.67,3
1.43,0.7,3
1.43,0.79,3
1.44,0.7,3
1.44,0.67,3
1.43,0.78,3
1.44,0.74,3
1.45,0.66,3
1.43,0.74,3
1.44,0.77,3
1.44,0.67,3
1.42,0.7,3
1.42,0.79,3
1.44,0.71,3
1.43,0.68,3
1.43,0.79,3
1.44,0.76,3
1.44,0.67,3
1.42,0.76,3
1.43,0.79,3
1.44,0.68,3
1.43,0.71,3
1.43,0.8,3
1.44,0.72,3
1.44,0.69,3
1.43,0.79,3
1.44,0.76,3
1.44,0.67,3
1.42,0.76,3
1.43,0.79,3
1.42,0.68,3
1.41,0.72,3
1.41,0.81,3
1.42,0.72,3
1.41,0.69,3
1.41,0.8,3
1.42,0.77,3
1.42,0.68,3
1.41,0.77,3
1.42,0.8,3
1.42,0.7,3
1.41,0.73,3
1.41,0.82,3
1.43,0.74,3
1.42,0.71,3
1.41,0.82,3
1.42,0.79,3
1.42,0.71,3
1.4,0.8,3
1.41,0.83,3
1.42,0.72,3
1.41,0.76,3
1.41,0.85,3
1.42,0.76,3
1.4,0.73,3
1.4,0.84,3
1.4,0.81,3
1.4,0.72,3
1.39,0.81,3
1.4,0.84,3
1.4,0.73,3
1.39,0.77,3
1.39,0.85,3
1.41,0.76,3
1.4,0.73,3
1.39,0.84,3
1.4,0.81,3
1.4,0.72,3
1.39,0.81,3
1.4,0.83,3
1.4,0.72,3
1.39,0.76,3
1.38,0.85,3
1.4,0.76,3
1.38,0.73,3
1.38,0.84,3
1.39,0.81,3
1.39,0.72,3
1.38,0.81,3
1.39,0.84,3
1.39,0.73,3
1.38,0.76,3
1.38,0.85,3
1.41,0.76,3
1.4,0.73,3
1.4,0.84,3
1.41,0.81,3
1.42,0.73,3
1.4,0.81,3
1.41,0.84,3
1.42,0.73,3
1.41,0.77,3
1.4,0.86,3
1.41,0.77,3
1.4,0.75,3
1.39,0.86,3
1.4,0.82,3
1.4,0.73,3
1.39,0.83,3
1.39,0.86,3
1.4,0.75,3
1.39,0.79,3
1.39,0.87,3
1.4,0.78,3
1.4,0.76,3
1.4,0.87,3
1.4,0.83,3
1.4,0.75,3
1.38,0.84,3
1.39,0.86,3
1.4,0.76,3
1.39,0.79,3
1.39,0.88,3
1.4,0.79,3
1.39,0.76,3
1.39,0.87,3
1.4,0.83,3
1.4,0.75,3
1.39,0.84,3
1.39,0.86,3
1.39,0.75,3
1.38,0.79,3
1.38,0.88,3
1.39,0.79,3
1.38,0.76,3
1.38,0.87,3
1.39,0.84,3
1.4,0.75,3
1.39,0.85,3
1.4,0.87,3
1.4,0.77,3
1.4,0.81,3
1.4,0.89,3
1.41,0.8,3
1.4,0.77,3
1.4,0.88,3
1.4,0.84,3
1.41,0.76,3
1.4,0.85,3
1.4,0.88,3
1.4,0.77,3
1.38,0.81,3
1.36,0.89,3
1.34,0.79,3
1.31,0.76,3
1.28,0.86,3
1.25,0.81,3
1.23,0.72,3
1.18,0.8,3
1.16,0.81,3
1.14,0.7,3
1.1,0.73,3
1.07,0.8,3
1.06,0.7,3
1.04,0.68,3
1.01,0.78,3
1.0,0.73,3
0.98,0.64,3
0.94,0.73,3
0.92,0.74,3
0.9,0.63,3
0.87,0.67,3
0.85,0.75,3
0.85,0.65,3
0.83,0.63,3
0.82,0.74,3
0.82,0.7,3
0.81,0.61,3
0.78,0.71,3
0.78,0.73,3
0.77,0.62,3
0.76,0.66,3
0.75,0.74,3
0.77,0.64,3
0.76,0.62,3
0.76,0.72,3
0.77,0.68,3
0.78,0.6,3
0.76,0.7,3
0.77,0.72,3
0.78,0.62,3
0.78,0.66,3
0.79,0.74,3
0.81,0.65,3
0.81,0.63,3
0.81,0.74,3
0.82,0.7,3
0.82,0.62,3
0.81,0.72,3
0.82,0.74,3
0.83,0.64,3
0.82,0.68,3
0.83,0.76,3
0.84,0.66,3
0.84,0.65,3
0.84,0.75,3
0.86,0.72,3
0.86,0.64,3
0.85,0.73,3
0.86,0.75,3
0.86,0.65,3
0.86,0.69,3
0.86,0.77,3
0.87,0.67,3
0.86,0.66,3
0.86,0.76,3
0.87,0.72,3
0.87,0.64,3
0.85,0.74,3
0.86,0.75,3
0.86,0.65,3
0.86,0.7,3
0.86,0.78,3
0.88,0.69,3
0.88,0.68,3
0.88,0.79,3
0.89,0.75,3
0.89,0.67,3
0.89,0.76,3
0.9,0.78,3
0.91,0.68,3
0.9,0.72,3
0.91,0.81,3
0.92,0.71,3
0.92,0.7,3
0.92,0.81,3
0.93,0.77,3
0.93,0.68,3
0.92,0.78,3
0.92,0.8,3
0.93,0.7,3
0.92,0.75,3
0.92,0.83,3
0.94,0.74,3
0.93,0.72,3
0.93,0.83,3
0.95,0.78,3
0.95,0.7,3
0.93,0.8,3
0.94,0.82,3
0.95,0.72,3
0.94,0.77,3
0.95,0.86,3
0.96,0.76,3
0.95,0.74,3
0.95,0.85,3
0.97,0.8,3
0.97,0.72,3
0.95,0.82,3
0.96,0.85,3
0.97,0.74,3
0.96,0.79,3
0.96,0.87,3
0.98,0.77,3
0.97,0.75,3
0.98,0.85,3
0.99,0.81,3
0.99,0.73,3
0.98,0.83,3
0.99,0.85,3
0.99,0.75,3
0.99,0.79,3
0.99,0.87,3
1.01,0.78,3
1.0,0.75,3
0.99,0.86,3
1.01,0.82,3
1.0,0.73,3
0.99,0.83,3
0.99,0.85,3
0.99,0.74,3
0.97,0.79,3
0.99,0.88,3
1.02,0.78,3
1.04,0.78,3
1.07,0.89,3
1.12,0.85,3
1.15,0.78,3
1.17,0.88,3
1.23,0.9,3
1.27,0.8,3
1.32,0.85,3
1.36,0.94,3
1.42,0.85,3
1.45,0.84,3
1.48,0.96,3
1.53,0.92,3
1.55,0.84,3
1.57,0.95,3
1.61,0.97,3
1.63,0.86,3
1.64,0.91,3
1.66,1.0,3
1.68,0.9,3
1.68,0.89,3
1.68,0.99,3
1.69,0.95,3
1.69,0.88,3
1.68,0.98,3
1.69,0.99,3
1.69,0.88,3
1.68,0.92,3
1.68,1.0,3
1.7,0.89,3
1.69,0.88,3
1.69,0.99,3
1.7,0.94,3
1.7,0.86,3
1.69,0.96,3
1.7,0.97,3
1.7,0.87,3
1.7,0.92,3
1.7,0.99,3
1.72,0.89,3
1.71,0.87,3
1.71,0.98,3
1.72,0.92,3
1.71,0.85,3
1.7,0.94,3
1.71,0.95,3
1.71,0.84,3
1.7,0.89,3
1.7,0.97,3
1.71,0.87,3
1.71,0.86,3
1.71,0.97,3
1.72,0.92,3
1.72,0.85,3
1.72,0.96,3
1.72,0.97,3
1.73,0.87,3
1.72,0.92,3
1.72,0.99,3
1.73,0.89,3
1.72,0.89,3
1.71,0.99,3
1.72,0.94,3
1.71,0.87,3
1.69,0.97,3
1.71,0.97,3
1.71,0.87,3
1.7,0.92,3
1.71,0.99,3
1.72,0.89,3
1.72,0.88,3
1.71,0.99,3
1.73,0.93,3
1.72,0.86,3
1.71,0.96,3
1.72,0.97,3
1.73,0.87,3
1.72,0.92,3
1.73,1.0,3
1.75,0.9,3
1.74,0.89,3
1.74,0.99,3
1.75,0.94,3
1.74,0.87,3
1.73,0.97,3
1.73,0.97,3
1.73,0.87,3
1.71,0.91,3
1.72,0.99,3
1.72,0.88,3
1.71,0.88,3
1.71,0.98,3
1.72,0.93,3
1.71,0.86,3
1.7,0.97,3
1.71,0.97,3
1.71,0.87,3
1.7,0.93,3
1.7,1.0,3
1.71,0.89,3
1.7,0.89,3
1.7,1.0,3
1.72,0.95,3
1.7,0.89,3
1.69,0.99,3
1.7,0.99,3
1.7,0.89,3
1.69,0.94,3
1.69,1.01,3
1.71,0.9,3
1.7,0.9,3
1.69,1.01,3
1.71,0.95,3
1.7,0.88,3
1.69,0.98,3
1.7,0.98,3
1.71,0.87,3
1.7,0.93,3
1.71,1.0,3
1.73,0.89,3
1.71,0.89,3
1.71,0.99,3
1.73,0.94,3
1.72,0.87,3
1.71,0.97,3
1.72,0.97,3
1.72,0.87,3
1.7,0.93,3
1.71,1.0,3
1.72,0.89,3
1.71,0.89,3
1.71,0.99,3
1.72,0.94,3
1.72,0.87,3
1.71,0.97,3
1.72,0.97,3
1.72,0.87,3
1.7,0.93,3
1.71,1.0,3
1.72,0.89,3
1.71,0.89,3
1.71,1.0,3
1.72,0.94,3
1.71,0.87,3
1.7,0.98,3
1.71,0.98,3
1.71,0.88,3
1.7,0.94,3
1.71,1.01,3
1.72,0.9,3
1.71,0.9,3
1.71,1.0,3
1.72,0.94,3
1.71,0.88,3
1.69,0.98,3
1.7,0.99,3
1.7,0.89,3
1.69,0.95,3
1.69,1.01,3
1.7,0.91,3
1.69,0.91,3
1.69,1.01,3
1.7,0.95,3
1.69,0.88,3
1.68,0.99,3
1.69,0.99,3
1.69,0.89,3
1.69,0.95,3
1.7,1.01,3
1.71,0.9,3
1.7,0.9,3
1.69,1.0,3
1.7,0.94,3
1.69,0.87,3
1.68,0.98,3
1.69,0.98,3
1.69,0.88,3
1.68,0.94,3
1.69,1.0,3
1.7,0.89,3
1.69,0.89,3
1.68,0.99,3
1.7,0.93,3
1.68,0.87,3
1.67,0.97,3
1.68,0.97,3
1.69,0.87,3
1.68,0.93,3
1.69,0.99,3
1.7,0.88,3
1.68,0.89,3
1.68,0.99,3
1.69,0.93,3
1.68,0.86,3
1.67,0.97,3
1.69,0.97,3
1.69,0.87,3
1.68,0.93,3
1.69,0.99,3
1.7,0.88,3
1.68,0.88,3
1.68,0.98,3
1.69,0.92,3
1.68,0.86,3
1.67,0.96,3
1.68,0.96,3
1.69,0.86,3
1.68,0.92,3
1.68,0.98,3
1.69,0.87,3
1.68,0.87,3
1.68,0.97,3
1.69,0.91,3
1.68,0.85,3
1.67,0.96,3
1.68,0.95,3
1.68,0.85,3
1.67,0.91,3
1.69,0.97,3
1.7,0.86,3
1.69,0.87,3
1.69,0.97,3
1.7,0.9,3
1.69,0.85,3
1.68,0.95,3
1.69,0.95,4
1.69,0.85,4
1.67,0.91,4
1.69,0.97,4
1.7,0.87,4
1.69,0.88,4
1.69,0.98,4
1.71,0.92,4
1.69,0.86,4
1.68,0.97,4
1.69,0.96,4
1.69,0.86,4
1.67,0.92,4
1.69,0.98,4
1.69,0.87,4
1.68,0.88,4
1.67,0.98,4
1.68,0.92,4
1.67,0.86,4
1.66,0.97,4
1.67,0.97,4
1.68,0.88,4
1.67,0.94,4
1.68,1.0,4
1.7,0.89,4
1.68,0.9,4
1.68,1.0,4
1.69,0.94,4
1.68,0.88,4
1.67,0.99,4
1.68,0.98,4
1.68,0.89,4
1.67,0.96,4
1.68,1.02,4
1.69,0.91,4
1.68,0.92,4
1.68,1.01,4
1.69,0.94,4
1.68,0.88,4
1.67,0.99,4
1.68,0.98,4
1.68,0.89,4
1.67,0.96,4
1.68,1.02,4
1.69,0.91,4
1.68,0.93,4
1.68,1.03,4
1.69,0.96,4
1.67,0.9,4
1.67,1.01,4
1.67,1.0,4
1.67,0.9,4
1.66,0.97,4
1.68,1.03,4
1.68,0.92,4
1.68,0.93,4
1.67,1.03,4
1.69,0.96,4
1.67,0.9,4
1.67,1.01,4
1.68,1.0,4
1.69,0.91,4
1.67,0.98,4
1.68,1.04,4
1.69,0.92,4
1.67,0.94,4
1.66,1.04,4
1.68,0.97,4
1.67,0.92,4
1.66,1.03,4
1.67,1.02,4
1.67,0.92,4
1.66,0.99,4
1.67,1.04,4
1.68,0.94,4
1.67,0.96,4
1.67,1.05,4
1.68,0.99,4
1.67,0.94,4
1.66,1.04,4
1.68,1.03,4
1.68,0.94,4
1.66,1.01,4
1.68,1.06,4
1.68,0.96,4
1.68,0.98,4
1.68,1.07,4
1.7,1.0,4
1.69,0.95,4
1.68,1.07,4
1.69,1.04,4
1.69,0.95,4
1.68,1.03,4
1.69,1.08,4
1.7,0.97,4
1.69,1.0,4
1.69,1.09,4
1.7,1.02,4
1.69,0.98,4
1.68,1.09,4
1.69,1.08,4
1.7,0.98,4
1.68,1.05,4
1.69,1.1,4
1.7,0.99,4
1.68,1.01,4
1.68,1.1,4
1.69,1.04,4
1.67,0.99,4
1.67,1.1,4
1.68,1.08,4
1.68,0.99,4
1.67,1.06,4
1.69,1.1,4
1.7,0.99,4
1.69,1.01,4
1.7,1.11,4
1.72,1.04,4
1.71,1.0,4
1.7,1.11,4
1.72,1.09,4
1.72,0.99,4
1.7,1.07,4
1.71,1.11,4
1.71,1.01,4
1.7,1.03,4
1.7,1.12,4
1.71,1.05,4
1.7,1.01,4
1.7,1.12,4
1.71,1.1,4
1.71,1.01,4
1.69,1.08,4
1.7,1.13,4
1.71,1.02,4
1.69,1.04,4
1.69,1.14,4
1.7,1.07,4
1.7,1.02,4
1.69,1.13,4
1.71,1.11,4
1.71,1.01,4
1.7,1.09,4
1.71,1.14,4
1.72,1.02,4
1.7,1.04,4
1.7,1.13,4
1.71,1.06,4
1.7,1.01,4
1.7,1.13,4
1.71,1.11,4
1.72,1.01,4
1.7,1.09,4
1.71,1.13,4
1.72,1.02,4
1.7,1.04,4
1.7,1.13,4
1.71,1.05,4
1.7,1.01,4
1.69,1.12,4
1.71,1.1,4
1.71,1.0,4
1.69,1.08,4
1.69,1.12,4
1.7,1.0,4
1.69,1.03,4
1.68,1.12,4
1.7,1.04,4
1.69,1.0,4
1.69,1.11,4
1.7,1.09,4
1.7,0.99,4
1.69,1.07,4
1.7,1.11,4
1.71,1.0,4
1.69,1.02,4
1.69,1.11,4
1.71,1.03,4
1.69,0.99,4
1.69,1.1,4
1.7,1.08,4
1.7,0.98,4
1.68,1.06,4
1.69,1.09,4
1.7,0.98,4
1.68,1.01,4
1.68,1.1,4
1.7,1.01,4
1.68,0.97,4
1.67,1.09,4
1.68,1.06,4
1.69,0.97,4
1.67,1.05,4
1.68,1.09,4
1.69,0.97,4
1.68,0.99,4
1.68,1.09,4
1.7,1.0,4
1.69,0.96,4
1.69,1.07,4
1.7,1.05,4
1.7,0.96,4
1.69,1.04,4
1.69,1.08,4
1.7,0.97,4
1.69,0.99,4
1.68,1.08,4
1.7,1.0,4
1.69,0.96,4
1.69,1.07,4
1.7,1.04,4
1.7,0.95,4
1.68,1.03,4
1.69,1.07,4
1.69,0.96,4
1.68,0.98,4
1.68,1.07,4
1.7,0.99,4
1.7,0.95,4
1.69,1.06,4
1.7,1.03,4
1.71,0.94,4
1.69,1.01,4
1.7,1.05,4
1.7,0.93,4
1.68,0.96,4
1.67,1.05,4
1.69,0.98,4
1.68,0.94,4
1.67,1.05,4
1.69,1.02,4
1.69,0.93,4
1.67,1.01,4
1.68,1.05,4
1.69,0.94,4
1.68,0.97,4
1.67,1.06,4
1.69,0.98,4
1.68,0.94,4
1.68,1.05,4
1.69,1.02,4
1.69,0.93,4
1.67,1.01,4
1.68,1.04,4
1.68,0.93,4
1.67,0.96,4
1.67,1.05,4
1.69,0.96,4
1.68,0.92,4
1.67,1.03,4
1.69,1.0,4
1.69,0.91,4
1.67,1.0,4
1.68,1.03,4
1.69,0.92,4
1.68,0.95,4
1.68,1.03,4
1.69,0.95,4
1.68,0.91,4
1.68,1.03,4
1.68,1.0,4
1.68,0.91,4
1.66,1.0,4
1.67,1.03,4
1.68,0.92,4
1.67,0.95,4
1.67,1.04,4
1.68,0.95,4
1.67,0.92,4
1.67,1.03,4
1.68,1.0,4
1.68,0.9,4
1.67,0.99,4
1.68,1.02,4
1.68,0.91,4
1.67,0.94,4
1.67,1.02,4
1.68,0.93,4
1.67,0.9,4
1.66,1.01,4
1.67,0.98,4
1.67,0.89,4
1.65,0.98,4
1.66,1.0,4
1.67,0.89,4
1.66,0.92,4
1.65,1.01,4
1.67,0.92,4
1.66,0.89,4
1.65,1.0,4
1.66,0.97,4
1.66,0.88,4
1.64,0.96,4
1.65,1.0,4
1.66,0.89,4
1.65,0.92,4
1.64,1.01,4
1.67,0.92,4
1.65,0.89,4
1.65,1.0,4
1.65,0.96,4
1.64,0.86,4
1.59,0.94,4
1.57,0.96,4
1.55,0.84,4
1.51,0.86,4
1.47,0.94,4
1.46,0.83,4
1.42,0.79,4
1.38,0.88,4
1.35,0.83,4
1.33,0.73,4
1.28,0.81,4
1.26,0.83,4
1.24,0.71,4
1.21,0.74,4
1.18,0.82,4
1.18,0.72,4
1.16,0.69,4
1.14,0.79,4
1.13,0.75,4
1.12,0.66,4
1.09,0.75,4
1.08,0.77,4
1.07,0.67,4
1.06,0.7,4
1.05,0.79,4
1.06,0.69,4
1.04,0.66,4
1.03,0.77,4
1.04,0.73,4
1.04,0.65,4
1.02,0.74,4
1.03,0.77,4
1.03,0.66,4
1.02,0.69,4
1.02,0.78,4
1.04,0.69,4
1.03,0.67,4
1.04,0.78,4
1.05,0.74,4
1.05,0.66,4
1.04,0.75,4
1.05,0.77,4
1.05,0.67,4
1.05,0.71,4
1.05,0.79,4
1.06,0.7,4
1.06,0.67,4
1.06,0.78,4
1.07,0.74,4
1.07,0.66,4
1.06,0.75,4
1.07,0.77,4
1.07,0.66,4
1.06,0.7,4
1.05,0.78,4
1.07,0.69,4
1.06,0.66,4
1.06,0.77,4
1.07,0.73,4
1.07,0.64,4
1.06,0.74,4
1.06,0.76,4
1.07,0.65,4
1.06,0.68,4
1.06,0.77,4
1.08,0.67,4
1.07,0.65,4
1.06,0.76,4
1.08,0.72,4
1.08,0.64,4
1.07,0.73,4
1.08,0.75,4
1.09,0.65,4
1.09,0.68,4
1.09,0.77,4
1.1,0.67,4
1.09,0.66,4
1.08,0.76,4
1.09,0.73,4
1.09,0.65,4
1.08,0.74,4
1.1,0.76,4
1.1,0.65,4
1.1,0.68,4
1.1,0.76,4
1.12,0.67,4
1.11,0.65,4
1.11,0.75,4
1.12,0.71,4
1.12,0.62,4
1.1,0.72,4
1.11,0.74,4
1.11,0.63,4
1.1,0.67,4
1.1,0.75,4
1.12,0.65,4
1.12,0.63,4
1.12,0.73,4
1.13,0.69,4
1.12,0.61,4
1.1,0.71,4
1.1,0.72,4
1.12,0.62,4
1.12,0.67,4
1.15,0.75,4
1.21,0.66,4
1.24,0.66,4
1.28,0.77,4
1.33,0.74,4
1.37,0.67,4
1.39,0.78,4
1.44,0.8,4
1.48,0.71,4
1.51,0.76,4
1.54,0.85,4
1.59,0.76,4
1.62,0.75,4
1.65,0.87,4
1.69,0.85,4
1.71,0.78,4
1.72,0.89,4
1.74,0.91,4
1.76,0.81,4
1.76,0.85,4
1.77,0.93,4
1.79,0.83,4
1.78,0.82,4
1.78,0.93,4
1.79,0.89,4
1.79,0.81,4
1.78,0.91,4
1.79,0.92,4
1.79,0.82,4
1.78,0.86,4
1.78,0.94,4
1.79,0.84,4
1.78,0.82,4
1.78,0.93,4
1.79,0.88,4
1.79,0.8,4
1.77,0.9,4
1.78,0.91,4
1.78,0.8,4
1.78,0.85,4
1.78,0.92,4
1.79,0.82,4
1.79,0.81,4
1.78,0.91,4
1.79,0.86,4
1.79,0.79,4
1.77,0.89,4
1.78,0.9,4
1.78,0.79,4
1.77,0.84,4
1.77,0.91,4
1.78,0.8,4
1.77,0.79,4
1.76,0.9,4
1.78,0.85,4
1.78,0.78,4
1.77,0.88,4
1.78,0.89,4
1.79,0.79,4
1.77,0.84,4
1.77,0.91,4
1.78,0.81,4
1.77,0.8,4
1.76,0.9,4
1.77,0.86,4
1.77,0.79,4
1.75,0.89,4
1.75,0.9,4
1.75,0.79,4
1.74,0.84,4
1.74,0.91,4
1.76,0.81,4
1.75,0.8,4
1.74,0.9,4
1.76,0.85,4
1.75,0.78,4
1.74,0.88,4
1.75,0.89,4
1.75,0.79,4
1.74,0.84,4
1.74,0.92,4
1.76,0.81,4
1.75,0.8,4
1.75,0.9,4
1.76,0.85,4
1.75,0.77,4
1.74,0.88,4
1.75,0.88,4
1.76,0.78,4
1.74,0.83,4
1.75,0.91,4
1.77,0.8,4
1.76,0.8,4
1.76,0.9,4
1.77,0.85,4
1.76,0.78,4
1.75,0.88,4
1.76,0.89,4
1.76,0.78,4
1.75,0.84,4
1.75,0.91,4
1.76,0.8,4
1.75,0.79,4
1.75,0.89,4
1.76,0.84,4
1.75,0.77,4
1.74,0.87,4
1.75,0.88,4
1.75,0.77,4
1.73,0.83,4
1.74,0.89,4
1.75,0.79,4
1.73,0.78,4
1.73,0.88,4
1.74,0.83,4
1.73,0.76,4
1.72,0.87,4
1.74,0.87,4
1.74,0.77,4
1.73,0.82,4
1.74,0.89,4
1.75,0.78,4
1.74,0.78,4
1.74,0.88,4
1.75,0.83,4
1.74,0.76,4
1.73,0.86,4
1.74,0.87,4
1.74,0.76,4
1.73,0.82,4
1.74,0.89,4
1.75,0.78,4
1.74,0.78,4
1.74,0.88,4
1.75,0.82,4
1.74,0.75,4
1.73,0.85,4
1.74,0.85,4
1.75,0.75,4
1.74,0.81,4
1.75,0.88,4
1.76,0.77,4
1.75,0.76,4
1.75,0.86,4
1.76,0.8,4
1.75,0.73,4
1.73,0.84,4
1.74,0.84,4
1.74,0.74,4
1.73,0.8,4
1.74,0.87,4
1.75,0.76,4
1.74,0.76,4
1.74,0.86,4
1.75,0.79,4
1.74,0.73,4
1.72,0.83,4
1.73,0.83,4
1.73,0.73,4
1.72,0.79,4
1.73,0.86,4
1.74,0.75,4
1.73,0.75,4
1.73,0.85,4
1.73,0.79,4
1.72,0.72,4
1.71,0.83,4
1.72,0.82,4
1.72,0.72,4
1.71,0.78,4
1.72,0.85,4
1.73,0.74,4
1.72,0.74,4
1.72,0.84,4
1.73,0.78,4
1.71,0.72,4
1.7,0.83,4
1.71,0.83,4
1.71,0.73,4
1.69,0.79,4
1.7,0.85,4
1.71,0.74,4
1.7,0.74,4
1.7,0.84,4
1.72,0.78,4
1.71,0.72,4
1.7,0.82,4
1.71,0.82,4
1.71,0.72,4
1.69,0.78,4
1.71,0.84,4
1.72,0.73,4
1.71,0.74,4
1.71,0.84,4
1.72,0.78,4
1.71,0.72,4
1.7,0.82,4
1.72,0.81,4
1.72,0.71,4
1.7,0.77,4
1.71,0.82,4
1.72,0.71,4
1.7,0.72,4
1.7,0.81,4
1.71,0.75,4
1.7,0.69,4
1.69,0.8,4
1.7,0.79,4
1.7,0.69,4
1.69,0.75,4
1.71,0.81,4
1.72,0.69,4
1.7,0.7,4
1.7,0.79,4
1.71,0.73,4
1.7,0.67,4
1.69,0.78,4
1.7,0.78,4
1.7,0.68,4
1.69,0.75,4
1.7,0.81,4
1.71,0.7,4
1.7,0.7,4
1.7,0.8,4
1.72,0.73,4
1.7,0.68,4
1.69,0.78,4
1.7,0.77,4
1.7,0.68,4
1.68,0.74,4
1.7,0.79,4
1.7,0.68,4
1.69,0.69,4
1.69,0.79,4
1.7,0.72,4
1.69,0.67,4
1.68,0.77,4
1.69,0.76,4
1.69,0.66,4
1.67,0.73,4
1.69,0.78,4
1.7,0.67,4
1.68,0.68,4
1.68,0.78,4
1.7,0.71,4
1.68,0.66,4
1.67,0.76,4
1.69,0.75,4
1.69,0.66,4
1.68,0.72,4
1.69,0.77,4
1.7,0.66,4
1.69,0.68,4
1.68,0.78,5
1.7,0.71,5
1.68,0.66,5
1.67,0.77,5
1.68,0.76,5
1.68,0.66,5
1.66,0.72,5
1.67,0.78,5
1.68,0.67,5
1.67,0.68,5
1.66,0.78,5
1.67,0.71,5
1.66,0.66,5
1.65,0.76,5
1.66,0.75,5
1.66,0.66,5
1.65,0.73,5
1.66,0.78,5
1.67,0.67,5
1.66,0.69,5
1.66,0.78,5
1.67,0.71,5
1.66,0.66,5
1.66,0.77,5
1.67,0.75,5
1.67,0.66,5
1.65,0.73,5
1.65,0.77,5
1.66,0.66,5
1.65,0.68,5
1.65,0.78,5
1.66,0.71,5
1.65,0.66,5
1.65,0.77,5
1.66,0.76,5
1.67,0.66,5
1.65,0.73,5
1.66,0.78,5
1.67,0.67,5
1.65,0.68,5
1.65,0.78,5
1.66,0.71,5
1.65,0.66,5
1.64,0.77,5
1.65,0.75,5
1.65,0.65,5
1.63,0.72,5
1.64,0.77,5
1.65,0.67,5
1.63,0.68,5
1.63,0.78,5
1.65,0.7,5
1.64,0.66,5
1.63,0.76,5
1.64,0.75,5
1.65,0.65,5
1.63,0.73,5
1.64,0.77,5
1.65,0.66,5
1.63,0.68,5
1.63,0.78,5
1.64,0.7,5
1.63,0.66,5
1.63,0.77,5
1.64,0.75,5
1.64,0.66,5
1.62,0.73,5
1.63,0.78,5
1.63,0.67,5
1.62,0.69,5
1.61,0.79,5
1.63,0.71,5
1.62,0.67,5
1.61,0.77,5
1.62,0.76,5
1.62,0.66,5
1.6,0.74,5
1.61,0.78,5
1.62,0.67,5
1.61,0.69,5
1.6,0.79,5
1.62,0.71,5
1.61,0.67,5
1.6,0.77,5
1.61,0.76,5
1.61,0.66,5
1.59,0.74,5
1.61,0.78,5
1.61,0.68,5
1.61,0.7,5
1.61,0.79,5
1.62,0.71,5
1.61,0.67,5
1.6,0.78,5
1.62,0.75,5
1.62,0.66,5
1.6,0.73,5
1.61,0.77,5
1.61,0.66,5
1.59,0.68,5
1.59,0.77,5
1.61,0.7,5
1.6,0.66,5
1.6,0.76,5
1.61,0.74,5
1.61,0.65,5
1.59,0.72,5
1.59,0.76,5
1.6,0.65,5
1.58,0.67,5
1.58,0.76,5
1.6,0.68,5
1.59,0.64,5
1.58,0.74,5
1.59,0.72,5
1.59,0.63,5
1.58,0.71,5
1.59,0.75,5
1.59,0.64,5
1.58,0.66,5
1.58,0.76,5
1.59,0.68,5
1.58,0.64,5
1.57,0.75,5
1.58,0.73,5
1.59,0.64,5
1.57,0.72,5
1.58,0.75,5
1.59,0.65,5
1.58,0.67,5
1.57,0.76,5
1.59,0.68,5
1.58,0.64,5
1.57,0.75,5
1.58,0.72,5
1.57,0.63,5
1.55,0.71,5
1.56,0.75,5
1.57,0.63,5
1.56,0.66,5
1.56,0.75,5
1.58,0.67,5
1.57,0.63,5
1.56,0.74,5
1.57,0.72,5
1.57,0.63,5
1.55,0.71,5
1.56,0.74,5
1.57,0.63,5
1.56,0.65,5
1.56,0.74,5
1.58,0.66,5
1.57,0.62,5
1.57,0.72,5
1.58,0.7,5
1.57,0.61,5
1.55,0.7,5
1.56,0.74,5
1.56,0.63,5
1.55,0.66,5
1.55,0.75,5
1.57,0.66,5
1.56,0.63,5
1.55,0.73,5
1.56,0.71,5
1.56,0.62,5
1.54,0.7,5
1.55,0.74,5
1.55,0.63,5
1.54,0.66,5
1.53,0.75,5
1.55,0.66,5
1.54,0.63,5
1.53,0.74,5
1.54,0.71,5
1.55,0.63,5
1.53,0.71,5
1.54,0.74,5
1.55,0.63,5
1.54,0.66,5
1.53,0.75,5
1.55,0.67,5
1.54,0.63,5
1.53,0.74,5
1.54,0.71,5
1.54,0.63,5
1.52,0.71,5
1.53,0.75,5
1.53,0.64,5
1.52,0.67,5
1.52,0.76,5
1.54,0.67,5
1.53,0.64,5
1.53,0.75,5
1.54,0.73,5
1.54,0.64,5
1.53,0.73,5
1.53,0.76,5
1.53,0.65,5
1.53,0.68,5
1.52,0.77,5
1.54,0.68,5
1.53,0.65,5
1.53,0.76,5
1.54,0.73,5
1.54,0.65,5
1.52,0.73,5
1.53,0.76,5
1.53,0.66,5
1.52,0.69,5
1.51,0.78,5
1.52,0.7,5
1.51,0.67,5
1.5,0.78,5
1.51,0.75,5
1.51,0.66,5
1.49,0.75,5
1.5,0.78,5
1.5,0.67,5
1.49,0.71,5
1.49,0.79,5
1.51,0.71,5
1.5,0.68,5
1.49,0.79,5
1.5,0.76,5
1.51,0.67,5
1.49,0.75,5
1.5,0.78,5
1.51,0.67,5
1.5,0.71,5
1.5,0.8,5
1.51,0.71,5
1.51,0.68,5
1.5,0.79,5
1.51,0.76,5
1.51,0.67,5
1.49,0.76,5
1.5,0.79,5
1.51,0.68,5
1.5,0.71,5
1.5,0.8,5
1.52,0.71,5
1.51,0.69,5
1.5,0.8,5
1.51,0.76,5
1.51,0.67,5
1.5,0.76,5
1.5,0.79,5
1.51,0.68,5
1.5,0.72,5
1.49,0.8,5
1.51,0.71,5
1.5,0.69,5
1.49,0.79,5
1.5,0.75,5
1.5,0.67,5
1.48,0.75,5
1.49,0.78,5
1.49,0.67,5
1.48,0.7,5
1.48,0.79,5
1.5,0.7,5
1.49,0.68,5
1.48,0.78,5
1.49,0.75,5
1.5,0.66,5
1.47,0.75,5
1.48,0.78,5
1.48,0.67,5
1.48,0.71,5
1.47,0.8,5
1.49,0.71,5
1.48,0.68,5
1.48,0.79,5
1.49,0.75,5
1.5,0.67,5
1.48,0.76,5
1.49,0.79,5
1.49,0.68,5
1.48,0.72,5
1.48,0.8,5
1.5,0.71,5
1.5,0.68,5
1.5,0.79,5
1.51,0.75,5
1.51,0.67,5
1.49,0.76,5
1.5,0.78,5
1.5,0.68,5
1.49,0.71,5
1.48,0.8,5
1.49,0.71,5
1.48,0.68,5
1.47,0.79,5
1.48,0.75,5
1.48,0.67,5
1.47,0.76,5
1.47,0.79,5
1.48,0.68,5
1.47,0.72,5
1.47,0.8,5
1.48,0.71,5
1.48,0.69,5
1.47,0.8,5
1.48,0.76,5
1.48,0.68,5
1.46,0.77,5
1.46,0.79,5
1.46,0.69,5
1.45,0.72,5
1.45,0.81,5
1.47,0.72,5
1.46,0.7,5
1.46,0.8,5
1.46,0.76,5
1.46,0.68,5
1.44,0.77,5
1.45,0.79,5
1.45,0.68,5
1.45,0.72,5
1.44,0.8,5
1.46,0.7,5
1.45,0.68,5
1.45,0.79,5
1.46,0.75,5
1.46,0.67,5
1.45,0.77,5
1.46,0.79,5
1.46,0.68,5
1.44,0.72,5
1.42,0.8,5
1.41,0.7,5
1.37,0.67,5
1.34,0.77,5
1.31,0.73,5
1.28,0.63,5
1.23,0.71,5
1.21,0.72,5
1.18,0.6,5
1.14,0.62,5
1.11,0.69,5
1.11,0.58,5
1.07,0.55,5
1.04,0.65,5
1.02,0.61,5
1.0,0.52,5
0.96,0.61,5
0.95,0.62,5
0.93,0.51,5
0.91,0.55,5
0.89,0.63,5
0.9,0.53,5
0.88,0.51,5
0.87,0.62,5
0.88,0.58,5
0.87,0.5,5
0.86,0.59,5
0.86,0.61,5
0.87,0.51,5
0.86,0.54,5
0.86,0.62,5
0.87,0.53,5
0.87,0.51,5
0.87,0.62,5
0.88,0.59,5
0.89,0.52,5
0.88,0.62,5
0.89,0.64,5
0.89,0.54,5
0.88,0.58,5
0.88,0.66,5
0.9,0.56,5
0.89,0.55,5
0.9,0.65,5
0.91,0.62,5
0.92,0.54,5
0.9,0.63,5
0.91,0.65,5
0.91,0.55,5
0.9,0.59,5
0.9,0.67,5
0.92,0.57,5
0.91,0.56,5
0.92,0.67,5
0.93,0.62,5
0.93,0.55,5
0.91,0.64,5
0.91,0.66,5
0.9,0.55,5
0.89,0.6,5
0.88,0.68,5
0.89,0.58,5
0.88,0.57,5
0.87,0.67,5
0.88,0.63,5
0.89,0.55,5
0.87,0.65,5
0.89,0.67,5
0.89,0.57,5
0.89,0.62,5
0.89,0.7,5
0.91,0.61,5
0.9,0.6,5
0.9,0.71,5
0.91,0.67,5
0.9,0.6,5
0.89,0.7,5
0.9,0.72,5
0.91,0.61,5
0.91,0.66,5
0.91,0.74,5
0.93,0.65,5
0.93,0.64,5
0.93,0.75,5
0.94,0.71,5
0.95,0.63,5
0.93,0.73,5
0.95,0.74,5
0.95,0.64,5
0.94,0.68,5
0.94,0.77,5
0.96,0.67,5
0.95,0.66,5
0.94,0.76,5
0.94,0.73,5
0.94,0.65,5
0.94,0.75,5
0.96,0.78,5
1.0,0.68,5
1.03,0.73,5
1.08,0.81,5
1.13,0.73,5
1.16,0.71,5
1.2,0.83,5
1.25,0.79,5
1.29,0.72,5
1.31,0.83,5
1.36,0.85,5
1.4,0.75,5
1.42,0.81,5
1.45,0.9,5
1.5,0.82,5
1.52,0.81,5
1.54,0.93,5
1.57,0.9,5
1.59,0.83,5
1.6,0.94,5
1.62,0.96,5
1.63,0.86,5
1.63,0.91,5
1.63,0.99,5
1.65,0.9,5
1.64,0.89,5
1.64,1.0,5
1.65,0.95,5
1.64,0.88,5
1.63,0.98,5
1.63,0.99,5
1.64,0.89,5
1.62,0.93,5
1.63,1.01,5
1.64,0.91,5
1.64,0.9,5
1.63,1.0,5
1.64,0.96,5
1.64,0.87,5
1.63,0.97,5
1.64,0.98,5
1.64,0.88,5
1.63,0.92,5
1.63,1.01,5
1.65,0.92,5
1.64,0.9,5
1.64,1.01,5
1.65,0.96,5
1.65,0.88,5
1.64,0.97,5
1.64,0.98,5
1.65,0.88,5
1.64,0.92,5
1.63,1.0,5
1.64,0.91,5
1.63,0.9,5
1.63,1.0,5
1.63,0.96,5
1.63,0.88,5
1.62,0.98,5
1.63,0.99,5
1.63,0.88,5
1.63,0.93,5
1.63,1.01,5
1.65,0.91,5
1.64,0.89,5
1.64,1.0,5
1.65,0.95,5
1.65,0.87,5
1.64,0.97,5
1.65,0.98,5
1.66,0.87,5
1.64,0.92,5
1.65,0.99,5
1.66,0.89,5
1.66,0.88,5
1.66,0.98,5
1.67,0.93,5
1.67,0.86,5
1.65,0.95,5
1.66,0.96,5
1.66,0.86,5
1.64,0.91,5
1.65,0.98,5
1.66,0.88,5
1.66,0.87,5
1.66,0.97,5
1.67,0.93,5
1.66,0.85,5
1.65,0.94,5
1.65,0.95,5
1.65,0.85,5
1.64,0.89,5
1.64,0.97,5
1.66,0.87,5
1.65,0.86,5
1.65,0.96,5
1.66,0.91,5
1.66,0.83,5
1.64,0.93,5
1.65,0.94,5
1.65,0.84,5
1.64,0.88,5
1.64,0.96,5
1.66,0.85,5
1.65,0.84,5
1.64,0.95,5
1.65,0.9,5
1.65,0.82,5
1.63,0.92,5
1.63,0.93,5
1.63,0.83,5
1.62,0.87,5
1.62,0.95,5
1.64,0.85,5
1.63,0.84,5
1.63,0.94,5
1.64,0.89,5
1.63,0.81,5
1.62,0.91,5
1.63,0.93,5
1.64,0.82,5
1.63,0.87,5
1.64,0.94,5
1.65,0.84,5
1.64,0.83,5
1.64,0.94,5
1.64,0.89,5
1.64,0.81,5
1.62,0.91,5
1.63,0.92,5
1.63,0.81,5
1.62,0.85,5
1.63,0.93,5
1.64,0.82,5
1.62,0.81,5
1.62,0.92,5
1.63,0.87,5
1.63,0.79,5
1.62,0.89,5
1.63,0.89,5
1.63,0.79,5
1.61,0.83,5
1.62,0.9,5
1.63,0.8,5
1.62,0.79,5
1.62,0.9,5
1.63,0.85,5
1.62,0.78,5
1.61,0.88,5
1.62,0.9,5
1.62,0.79,5
1.61,0.83,5
1.62,0.91,5
1.63,0.8,5
1.62,0.79,5
1.62,0.89,5
1.63,0.84,5
1.63,0.76,5
1.62,0.86,5
1.63,0.87,5
1.64,0.77,5
1.62,0.82,5
1.62,0.9,5
1.63,0.79,5
1.62,0.78,5
1.61,0.88,5
1.63,0.83,5
1.62,0.76,5
1.61,0.86,5
1.62,0.87,5
1.62,0.77,5
1.61,0.82,5
1.62,0.89,5
1.63,0.78,5
1.62,0.77,5
1.62,0.87,5
1.63,0.82,5
1.62,0.75,5
1.61,0.86,5
1.62,0.87,5
1.62,0.76,5
1.61,0.81,5
1.62,0.88,5
1.63,0.78,5
1.61,0.77,5
1.61,0.88,5
1.62,0.83,5
1.61,0.76,5
1.59,0.86,5
1.6,0.87,5
1.61,0.77,5
1.59,0.83,5
1.6,0.9,5
1.61,0.8,5
1.6,0.79,5
1.6,0.9,5
1.61,0.85,5
1.61,0.78,5
1.59,0.87,5
1.6,0.88,5
1.6,0.78,5
1.59,0.83,5
1.59,0.91,5
1.6,0.8,5
1.59,0.8,5
1.59,0.91,5
1.61,0.86,5
1.61,0.79,5
1.59,0.89,5
1.6,0.89,5
1.61,0.78,5
1.59,0.83,5
1.59,0.9,5
1.61,0.8,5
1.59,0.8,5
1.59,0.9,5
1.6,0.85,5
1.6,0.77,5
1.58,0.88,5
1.59,0.88,5
1.59,0.78,5
1.58,0.82,5
1.59,0.9,5
1.6,0.79,5
1.59,0.78,5
1.59,0.89,5
1.6,0.83,5
1.59,0.76,5
1.58,0.86,5
1.59,0.86,5
1.59,0.76,5
1.58,0.8,5
1.58,0.87,5
1.59,0.77,5
1.58,0.76,5
1.58,0.87,5
1.59,0.82,5
1.58,0.75,5
1.57,0.85,5
1.58,0.86,5
1.58,0.75,5
1.57,0.8,5
1.57,0.87,5
1.59,0.77,6
1.58,0.77,6
1.58,0.87,6
1.59,0.82,6
1.59,0.75,6
1.57,0.85,6
1.59,0.85,6
1.59,0.75,6
1.58,0.8,6
1.59,0.87,6
1.6,0.77,6
1.58,0.76,6
1.58,0.86,6
1.59,0.81,6
1.58,0.73,6
1.56,0.83,6
1.57,0.84,6
1.57,0.73,6
1.56,0.78,6
1.57,0.86,6
1.58,0.76,6
1.57,0.75,6
1.57,0.86,6
1.58,0.8,6
1.58,0.73,6
1.56,0.83,6
1.58,0.84,6
1.58,0.73,6
1.56,0.79,6
1.57,0.86,6
1.58,0.75,6
1.57,0.74,6
1.57,0.84,6
1.58,0.78,6
1.57,0.71,6
1.56,0.81,6
1.57,0.82,6
1.57,0.72,6
1.56,0.77,6
1.56,0.84,6
1.58,0.74,6
1.56,0.73,6
1.56,0.83,6
1.57,0.78,6
1.57,0.7,6
1.55,0.8,6
1.56,0.81,6
1.57,0.7,6
1.56,0.75,6
1.56,0.82,6
1.57,0.72,6
1.56,0.7,6
1.56,0.81,6
1.57,0.75,6
1.57,0.68,6
1.56,0.78,6
1.57,0.79,6
1.58,0.69,6
1.57,0.74,6
1.58,0.81,6
1.59,0.7,6
1.58,0.68,6
1.58,0.79,6
1.59,0.73,6
1.58,0.66,6
1.57,0.77,6
1.57,0.78,6
1.57,0.67,6
1.56,0.73,6
1.56,0.8,6
1.57,0.69,6
1.56,0.68,6
1.56,0.78,6
1.57,0.73,6
1.56,0.66,6
1.54,0.76,6
1.55,0.77,6
1.55,0.67,6
1.54,0.72,6
1.54,0.79,6
1.56,0.69,6
1.55,0.68,6
1.55,0.78,6
1.56,0.73,6
1.56,0.66,6
1.54,0.76,6
1.55,0.77,6
1.55,0.67,6
1.53,0.72,6
1.54,0.78,6
1.55,0.68,6
1.55,0.67,6
1.54,0.77,6
1.56,0.72,6
1.55,0.65,6
1.54,0.76,6
1.55,0.76,6
1.55,0.66,6
1.54,0.71,6
1.55,0.78,6
1.56,0.67,6
1.55,0.66,6
1.55,0.77,6
1.56,0.72,6
1.55,0.65,6
1.54,0.76,6
1.55,0.77,6
1.55,0.66,6
1.54,0.71,6
1.55,0.78,6
1.56,0.68,6
1.55,0.67,6
1.55,0.78,6
1.56,0.73,6
1.55,0.66,6
1.53,0.76,6
1.54,0.77,6
1.54,0.67,6
1.53,0.71,6
1.54,0.78,6
1.55,0.68,6
1.54,0.67,6
1.54,0.78,6
1.55,0.73,6
1.54,0.66,6
1.53,0.76,6
1.54,0.77,6
1.54,0.66,6
1.53,0.71,6
1.53,0.78,6
1.54,0.68,6
1.53,0.67,6
1.53,0.78,6
1.54,0.73,6
1.52,0.67,6
1.51,0.78,6
1.52,0.79,6
1.53,0.69,6
1.51,0.74,6
1.52,0.81,6
1.53,0.71,6
1.52,0.7,6
1.52,0.8,6
1.53,0.75,6
1.52,0.68,6
1.51,0.78,6
1.52,0.79,6
1.53,0.69,6
1.52,0.74,6
1.52,0.81,6
1.54,0.71,6
1.53,0.7,6
1.53,0.8,6
1.54,0.75,6
1.53,0.68,6
1.52,0.78,6
1.53,0.79,6
1.53,0.69,6
1.52,0.74,6
1.53,0.81,6
1.54,0.7,6
1.53,0.69,6
1.53,0.79,6
1.54,0.74,6
1.53,0.67,6
1.51,0.77,6
1.52,0.78,6
1.52,0.68,6
1.5,0.73,6
1.51,0.8,6
1.52,0.7,6
1.51,0.69,6
1.51,0.79,6
1.52,0.73,6
1.51,0.66,6
1.49,0.77,6
1.5,0.78,6
1.51,0.67,6
1.49,0.73,6
1.5,0.79,6
1.51,0.69,6
1.49,0.68,6
1.49,0.79,6
1.5,0.73,6
1.5,0.67,6
1.49,0.77,6
1.5,0.78,6
1.5,0.67,6
1.49,0.72,6
1.49,0.79,6
1.51,0.68,6
1.5,0.67,6
1.5,0.78,6
1.51,0.73,6
1.5,0.66,6
1.49,0.77,6
1.5,0.78,6
1.5,0.67,6
1.49,0.72,6
1.5,0.79,6
1.51,0.69,6
1.51,0.68,6
1.51,0.78,6
1.52,0.73,6
1.51,0.66,6
1.49,0.76,6
1.5,0.77,6
1.5,0.67,6
1.49,0.72,6
1.5,0.78,6
1.51,0.68,6
1.5,0.67,6
1.49,0.77,6
1.5,0.72,6
1.49,0.66,6
1.48,0.76,6
1.5,0.77,6
1.5,0.67,6
1.49,0.72,6
1.49,0.79,6
1.5,0.69,6
1.49,0.68,6
1.49,0.78,6
1.51,0.73,6
1.5,0.66,6
1.49,0.77,6
1.5,0.77,6
1.5,0.67,6
1.48,0.72,6
1.49,0.79,6
1.5,0.68,6
1.49,0.68,6
1.49,0.78,6
1.5,0.73,6
1.49,0.66,6
1.48,0.77,6
1.49,0.78,6
1.49,0.68,6
1.48,0.73,6
1.48,0.8,6
1.49,0.7,6
1.47,0.7,6
1.47,0.8,6
1.48,0.75,6
1.48,0.69,6
1.46,0.79,6
1.47,0.8,6
1.48,0.7,6
1.46,0.75,6
1.47,0.82,6
1.48,0.72,6
1.48,0.71,6
1.47,0.81,6
1.49,0.76,6
1.48,0.69,6
1.47,0.8,6
1.47,0.8,6
1.48,0.7,6
1.46,0.76,6
1.47,0.83,6
1.48,0.73,6
1.47,0.73,6
1.47,0.84,6
1.49,0.79,6
1.48,0.72,6
1.47,0.82,6
1.48,0.83,6
1.48,0.72,6
1.46,0.78,6
1.47,0.85,6
1.48,0.75,6
1.48,0.76,6
1.48,0.86,6
1.49,0.81,6
1.49,0.75,6
1.48,0.86,6
1.49,0.87,6
1.49,0.77,6
1.48,0.83,6
1.49,0.9,6
1.5,0.8,6
1.49,0.8,6
1.49,0.9,6
1.51,0.85,6
1.5,0.79,6
1.49,0.89,6
1.5,0.9,6
1.51,0.81,6
1.49,0.86,6
1.5,0.93,6
1.52,0.83,6
1.51,0.83,6
1.51,0.94,6
1.52,0.89,6
1.51,0.82,6
1.5,0.93,6
1.51,0.94,6
1.51,0.84,6
1.5,0.9,6
1.52,0.97,6
1.53,0.87,6
1.53,0.88,6
1.52,0.98,6
1.54,0.93,6
1.53,0.86,6
1.52,0.97,6
1.54,0.97,6
1.55,0.88,6
1.55,0.93,6
1.56,1.01,6
1.58,0.91,6
1.57,0.91,6
1.57,1.02,6
1.59,0.97,6
1.58,0.9,6
1.56,1.01,6
1.57,1.02,6
1.58,0.93,6
1.56,0.99,6
1.57,1.06,6
1.59,0.97,6
1.58,0.97,6
1.58,1.08,6
1.59,1.03,6
1.58,0.96,6
1.57,1.06,6
1.58,1.07,6
1.58,0.97,6
1.57,1.04,6
1.58,1.12,6
1.6,1.02,6
1.6,1.02,6
1.6,1.13,6
1.61,1.08,6
1.61,1.01,6
1.59,1.12,6
1.6,1.13,6
1.61,1.03,6
1.59,1.09,6
1.6,1.16,6
1.61,1.06,6
1.59,1.06,6
1.59,1.16,6
1.6,1.11,6
1.59,1.05,6
1.58,1.16,6
1.59,1.16,6
1.6,1.06,6
1.58,1.12,6
1.6,1.18,6
1.61,1.08,6
1.61,1.08,6
1.61,1.19,6
1.63,1.13,6
1.62,1.07,6
1.61,1.17,6
1.62,1.18,6
1.63,1.08,6
1.61,1.14,6
1.62,1.21,6
1.63,1.11,6
1.61,1.11,6
1.61,1.21,6
1.62,1.16,6
1.62,1.09,6
1.61,1.2,6
1.62,1.2,6
1.63,1.1,6
1.62,1.16,6
1.63,1.22,6
1.64,1.12,6
1.63,1.12,6
1.63,1.23,6
1.65,1.18,6
1.64,1.11,6
1.63,1.21,6
1.65,1.22,6
1.65,1.11,6
1.64,1.17,6
1.65,1.24,6
1.65,1.14,6
1.64,1.13,6
1.63,1.22,6
1.62,1.16,6
1.6,1.09,6
1.57,1.18,6
1.55,1.18,6
1.53,1.07,6
1.49,1.11,6
1.47,1.17,6
1.46,1.05,6
1.42,1.04,6
1.39,1.13,6
1.37,1.06,6
1.33,0.98,6
1.3,1.07,6
1.28,1.06,6
1.26,0.95,6
1.22,1.0,6
1.21,1.07,6
1.21,0.96,6
1.18,0.95,6
1.16,1.05,6
1.17,0.99,6
1.15,0.92,6
1.12,1.02,6
1.12,1.02,6
1.12,0.92,6
1.1,0.98,6
1.11,1.04,6
1.12,0.94,6
1.1,0.94,6
1.09,1.03,6
1.1,0.97,6
1.09,0.91,6
1.08,1.01,6
1.09,1.01,6
1.1,0.91,6
1.09,0.97,6
1.1,1.04,6
1.11,0.94,6
1.11,0.93,6
1.11,1.03,6
1.13,0.97,6
1.12,0.91,6
1.11,1.01,6
1.12,1.01,6
1.13,0.92,6
1.12,0.97,6
1.13,1.04,6
1.15,0.93,6
1.15,0.93,6
1.15,1.03,6
1.16,0.97,6
1.15,0.9,6
1.14,1.01,6
1.15,1.0,6
1.16,0.9,6
1.16,0.95,6
1.17,1.02,6
1.19,0.91,6
1.18,0.91,6
1.18,1.01,6
1.19,0.95,6
1.19,0.89,6
1.18,0.99,6
1.19,0.99,6
1.2,0.89,6
1.19,0.94,6
1.19,1.0,6
1.22,0.89,6
1.21,0.9,6
1.21,1.0,6
1.23,0.94,6
1.22,0.88,6
1.21,0.98,6
1.22,0.97,6
1.22,0.87,6
1.2,0.93,6
1.21,0.99,6
1.23,0.88,6
1.22,0.89,6
1.22,0.98,6
1.24,0.92,6
1.24,0.85,6
1.23,0.95,6
1.24,0.95,6
1.25,0.84,6
1.23,0.89,6
1.24,0.95,6
1.25,0.85,6
1.24,0.85,6
1.25,0.95,6
1.26,0.89,6
1.26,0.82,6
1.24,0.92,6
1.25,0.92,6
1.25,0.82,6
1.24,0.87,6
1.25,0.93,6
1.26,0.83,6
1.25,0.83,6
1.25,0.93,6
1.26,0.87,6
1.25,0.8,6
1.23,0.91,6
1.24,0.9,6
1.24,0.8,6
1.24,0.86,6
1.26,0.92,6
1.31,0.82,6
1.33,0.83,6
1.37,0.93,6
1.42,0.88,6
1.45,0.83,6
1.47,0.94,6
1.52,0.95,6
1.56,0.85,6
1.58,0.92,6
1.62,0.98,6
1.67,0.88,6
1.69,0.89,6
1.72,1.0,6
1.76,0.95,6
1.78,0.89,6
1.8,1.0,6
1.83,1.01,6
1.85,0.91,6
1.85,0.96,6
1.87,1.02,6
1.89,0.91,6
1.89,0.91,6
1.89,1.01,6
1.9,0.94,6
1.89,0.88,6
1.89,0.98,6
1.9,0.97,6
1.9,0.86,6
1.88,0.91,6
1.89,0.97,6
1.9,0.85,6
1.89,0.85,6
1.89,0.94,6
1.9,0.88,6
1.89,0.81,6
1.88,0.91,6
1.88,0.9,6
1.88,0.79,6
1.87,0.85,6
1.87,0.9,6
1.88,0.8,6
1.87,0.8,6
1.86,0.89,6
1.88,0.83,6
1.87,0.77,6
1.86,0.87,6
1.87,0.86,6
1.87,0.75,6
1.85,0.81,6
1.85,0.87,6
1.86,0.76,6
1.85,0.76,6
1.85,0.85,6
1.86,0.78,6
1.85,0.72,6
1.83,0.82,6
1.84,0.81,6
1.84,0.71,6
1.83,0.76,6
1.85,0.82,6
1.86,0.71,6
1.85,0.71,6
1.84,0.81,6
1.85,0.75,6
1.84,0.68,6
1.83,0.78,6
1.85,0.78,6
1.86,0.68,6
1.85,0.73,6
1.87,0.78,6
1.88,0.68,6
1.87,0.67,6
1.86,0.76,6
1.88,0.7,6
1.88,0.64,6
1.87,0.74,6
1.88,0.74,6
1.88,0.64,6
1.86,0.7,6
1.87,0.76,6
1.88,0.66,6
1.87,0.66,6
1.87,0.76,6
1.88,0.7,6
1.87,0.65,6
1.85,0.76,6
1.86,0.77,6
1.85,0.68,6
1.83,0.74,6
1.83,0.8,6
1.84,0.7,6
1.83,0.71,6
1.82,0.81,6
1.83,0.75,6
1.81,0.69,6
1.79,0.79,6
1.8,0.78,6
1.79,0.68,6
1.78,0.73,6
1.79,0.79,6
1.81,0.69,6
1.81,0.7,6
1.81,0.8,6
1.83,0.74,6
1.83,0.67,6
1.81,0.78,6
1.81,0.77,6
1.82,0.67,6
1.8,0.73,6
1.81,0.79,6
1.82,0.68,6
1.81,0.69,6
1.8,0.78,6
1.82,0.72,6
1.8,0.66,6
1.79,0.76,6
1.8,0.75,6
1.8,0.65,6
1.79,0.71,6
1.8,0.77,6
1.81,0.66,6
1.8,0.65,6
1.8,0.75,6
1.81,0.69,6
1.8,0.62,6
1.79,0.73,6
1.8,0.72,6
1.8,0.62,6
1.79,0.68,6
1.79,0.73,6
1.8,0.62,6
1.79,0.62,6
1.79,0.71,6
1.81,0.65,6
1.8,0.58,6
1.79,0.68,6
1.8,0.67,6
1.8,0.57,6
1.78,0.63,6
1.79,0.69,6
1.81,0.58,6
1.8,0.58,6
1.8,0.67,6
1.81,0.61,6
1.8,0.55,6
1.79,0.65,6
1.79,0.64,6
1.79,0.54,6
1.78,0.59,6
1.79,0.65,6
1.8,0.54,6
1.78,0.54,6
1.78,0.64,6
1.79,0.57,6
1.78,0.52,6
1.76,0.62,6
1.77,0.61,6
1.77,0.51,6
1.76,0.58,6
1.76,0.63,6
1.77,0.53,6
1.76,0.53,6
1.76,0.62,6
1.77,0.55,6
1.76,0.5,6
1.75,0.6,6
1.76,0.59,6
1.76,0.49,6
1.74,0.56,6
1.75,0.61,6
1.76,0.5,6
1.75,0.51,6
1.74,0.6,6
1.76,0.54,6
1.74,0.48,6
1.73,0.59,6
1.73,0.58,6
1.73,0.49,6
1.71,0.55,6
1.72,0.61,6
1.73,0.5,6
1.72,0.51,6
1.72,0.6,6
1.73,0.54,6
1.72,0.49,6
1.7,0.6,6
1.71,0.6,6
1.71,0.5,6
1.7,0.57,6
1.71,0.62,6
1.71,0.52,6
1.7,0.52,6
1.69,0.62,6
1.7,0.56,6
1.69,0.51,6
1.68,0.61,6
1.69,0.6,6
1.69,0.51,6
1.67,0.57,6
1.68,0.63,6
1.69,0.52,6
1.67,0.53,6
1.67,0.63,6
1.68,0.56,6
1.66,0.51,6
1.65,0.61,6
1.66,0.6,6
1.65,0.51,6
1.64,0.57,6
1.64,0.62,6
1.65,0.51,6
1.64,0.52,6
1.63,0.62,6
1.64,0.55,6
1.63,0.5,7
1.61,0.6,7
1.62,0.59,7
1.62,0.5,7
1.6,0.56,7
1.62,0.61,7
1.63,0.5,7
1.62,0.51,7
1.61,0.6,7
1.62,0.54,7
1.61,0.48,7
1.6,0.59,7
1.61,0.58,7
1.62,0.48,7
1.6,0.55,7
1.61,0.6,7
1.62,0.49,7
1.61,0.51,7
1.6,0.6,7
1.61,0.53,7
1.59,0.48,7
1.57,0.58,7
1.58,0.57,7
1.58,0.48,7
1.57,0.54,7
1.58,0.59,7
1.59,0.49,7
1.57,0.49,7
1.57,0.59,7
1.58,0.52,7
1.57,0.47,7
1.56,0.57,7
1.57,0.56,7
1.57,0.47,7
1.55,0.53,7
1.56,0.58,7
1.57,0.47,7
1.56,0.49,7
1.56,0.58,7
1.58,0.51,7
1.56,0.46,7
1.55,0.57,7
1.56,0.55,7
1.56,0.46,7
1.54,0.53,7
1.55,0.58,7
1.55,0.47,7
1.55,0.49,7
1.55,0.58,7
1.56,0.52,7
1.55,0.47,7
1.54,0.58,7
1.55,0.57,7
1.55,0.47,7
1.54,0.54,7
1.54,0.59,7
1.55,0.48,7
1.53,0.5,7
1.53,0.59,7
1.54,0.53,7
1.52,0.48,7
1.51,0.59,7
1.52,0.58,7
1.52,0.49,7
1.5,0.56,7
1.51,0.62,7
1.51,0.52,7
1.5,0.53,7
1.5,0.63,7
1.51,0.56,7
1.5,0.51,7
1.49,0.62,7
1.5,0.61,7
1.5,0.52,7
1.48,0.59,7
1.49,0.64,7
1.5,0.54,7
1.48,0.55,7
1.48,0.65,7
1.5,0.58,7
1.48,0.54,7
1.48,0.65,7
1.49,0.64,7
1.49,0.55,7
1.47,0.62,7
1.48,0.68,7
1.48,0.58,7
1.47,0.59,7
1.47,0.69,7
1.48,0.62,7
1.47,0.57,7
1.47,0.68,7
1.48,0.67,7
1.48,0.58,7
1.46,0.65,7
1.47,0.7,7
1.47,0.6,7
1.46,0.61,7
1.45,0.7,7
1.47,0.63,7
1.45,0.59,7
1.45,0.7,7
1.45,0.69,7
1.45,0.6,7
1.43,0.67,7
1.44,0.72,7
1.44,0.61,7
1.42,0.61,7
1.42,0.71,7
1.44,0.64,7
1.42,0.59,7
1.42,0.69,7
1.43,0.69,7
1.43,0.59,7
1.41,0.67,7
1.42,0.72,7
1.42,0.61,7
1.41,0.63,7
1.41,0.72,7
1.42,0.65,7
1.41,0.6,7
1.41,0.71,7
1.42,0.7,7
1.42,0.6,7
1.41,0.68,7
1.42,0.72,7
1.42,0.61,7
1.41,0.63,7
1.4,0.72,7
1.42,0.65,7
1.41,0.61,7
1.4,0.72,7
1.41,0.71,7
1.42,0.61,7
1.4,0.68,7
1.41,0.73,7
1.41,0.62,7
1.4,0.63,7
1.4,0.71,7
1.41,0.64,7
1.4,0.59,7
1.4,0.7,7
1.41,0.68,7
1.41,0.59,7
1.39,0.66,7
1.4,0.71,7
1.4,0.6,7
1.39,0.61,7
1.39,0.71,7
1.41,0.63,7
1.39,0.58,7
1.39,0.69,7
1.4,0.67,7
1.4,0.58,7
1.38,0.65,7
1.39,0.69,7
1.4,0.59,7
1.39,0.61,7
1.38,0.7,7
1.4,0.63,7
1.38,0.59,7
1.38,0.7,7
1.39,0.68,7
1.39,0.59,7
1.37,0.67,7
1.38,0.72,7
1.39,0.61,7
1.37,0.64,7
1.37,0.73,7
1.39,0.66,7
1.38,0.62,7
1.37,0.73,7
1.39,0.71,7
1.39,0.62,7
1.37,0.69,7
1.39,0.73,7
1.39,0.63,7
1.38,0.65,7
1.37,0.75,7
1.39,0.67,7
1.37,0.64,7
1.37,0.74,7
1.38,0.72,7
1.38,0.63,7
1.37,0.71,7
1.38,0.75,7
1.38,0.65,7
1.37,0.67,7
1.36,0.76,7
1.38,0.69,7
1.37,0.65,7
1.36,0.76,7
1.37,0.73,7
1.37,0.64,7
1.35,0.72,7
1.37,0.76,7
1.37,0.66,7
1.36,0.68,7
1.36,0.78,7
1.37,0.71,7
1.36,0.67,7
1.36,0.78,7
1.37,0.76,7
1.37,0.66,7
1.36,0.74,7
1.37,0.78,7
1.37,0.67,7
1.36,0.7,7
1.36,0.79,7
1.37,0.71,7
1.36,0.67,7
1.36,0.77,7
1.37,0.75,7
1.38,0.66,7
1.36,0.74,7
1.37,0.78,7
1.38,0.67,7
1.37,0.69,7
1.37,0.79,7
1.38,0.71,7
1.37,0.67,7
1.36,0.78,7
1.37,0.75,7
1.37,0.66,7
1.35,0.73,7
1.36,0.77,7
1.36,0.67,7
1.35,0.7,7
1.34,0.79,7
1.36,0.71,7
1.35,0.67,7
1.34,0.78,7
1.35,0.75,7
1.35,0.66,7
1.33,0.74,7
1.34,0.77,7
1.34,0.67,7
1.33,0.69,7
1.32,0.79,7
1.34,0.71,7
1.33,0.67,7
1.32,0.78,7
1.33,0.75,7
1.33,0.66,7
1.32,0.75,7
1.33,0.78,7
1.33,0.68,7
1.32,0.7,7
1.31,0.8,7
1.33,0.71,7
1.32,0.68,7
1.32,0.79,7
1.33,0.76,7
1.33,0.67,7
1.32,0.75,7
1.32,0.78,7
1.32,0.67,7
1.31,0.7,7
1.3,0.8,7
1.32,0.71,7
1.31,0.68,7
1.31,0.78,7
1.32,0.76,7
1.32,0.66,7
1.31,0.75,7
1.31,0.78,7
1.32,0.67,7
1.3,0.7,7
1.3,0.79,7
1.32,0.71,7
1.32,0.68,7
1.31,0.78,7
1.32,0.75,7
1.32,0.66,7
1.3,0.75,7
1.31,0.79,7
1.31,0.68,7
1.3,0.71,7
1.3,0.8,7
1.32,0.72,7
1.31,0.68,7
1.31,0.79,7
1.32,0.76,7
1.32,0.67,7
1.3,0.76,7
1.31,0.79,7
1.31,0.68,7
1.3,0.71,7
1.3,0.8,7
1.32,0.72,7
1.31,0.68,7
1.3,0.79,7
1.32,0.77,7
1.32,0.68,7
1.3,0.76,7
1.31,0.8,7
1.31,0.69,7
1.31,0.72,7
1.31,0.8,7
1.32,0.72,7
1.32,0.69,7
1.31,0.79,7
1.32,0.76,7
1.32,0.68,7
1.31,0.76,7
1.31,0.79,7
1.31,0.68,7
1.3,0.72,7
1.3,0.81,7
1.32,0.72,7
1.32,0.69,7
1.31,0.8,7
1.32,0.77,7
1.33,0.68,7
1.31,0.77,7
1.32,0.8,7
1.32,0.69,7
1.31,0.72,7
1.31,0.8,7
1.33,0.72,7
1.32,0.69,7
1.32,0.8,7
1.32,0.76,7
1.32,0.68,7
1.3,0.76,7
1.32,0.79,7
1.31,0.68,7
1.3,0.71,7
1.29,0.8,7
1.28,0.71,7
1.24,0.67,7
1.22,0.77,7
1.2,0.73,7
1.17,0.63,7
1.13,0.71,7
1.11,0.72,7
1.08,0.6,7
1.04,0.62,7
1.01,0.69,7
1.0,0.6,7
0.96,0.56,7
0.93,0.66,7
0.93,0.62,7
0.91,0.53,7
0.88,0.61,7
0.87,0.64,7
0.85,0.53,7
0.83,0.56,7
0.81,0.65,7
0.81,0.56,7
0.8,0.53,7
0.78,0.64,7
0.78,0.6,7
0.77,0.51,7
0.75,0.6,7
0.75,0.62,7
0.74,0.51,7
0.73,0.54,7
0.72,0.63,7
0.74,0.54,7
0.72,0.51,7
0.72,0.63,7
0.73,0.59,7
0.73,0.51,7
0.71,0.59,7
0.72,0.62,7
0.72,0.51,7
0.7,0.54,7
0.7,0.62,7
0.72,0.53,7
0.71,0.51,7
0.71,0.61,7
0.72,0.58,7
0.73,0.5,7
0.71,0.59,7
0.72,0.62,7
0.72,0.52,7
0.72,0.55,7
0.72,0.64,7
0.74,0.55,7
0.73,0.53,7
0.74,0.64,7
0.76,0.6,7
0.77,0.52,7
0.75,0.61,7
0.76,0.64,7
0.76,0.54,7
0.76,0.57,7
0.76,0.65,7
0.77,0.56,7
0.77,0.54,7
0.76,0.64,7
0.77,0.61,7
0.77,0.53,7
0.76,0.61,7
0.76,0.64,7
0.76,0.53,7
0.75,0.57,7
0.74,0.66,7
0.76,0.57,7
0.75,0.55,7
0.75,0.65,7
0.76,0.62,7
0.77,0.54,7
0.75,0.63,7
0.76,0.66,7
0.76,0.55,7
0.76,0.6,7
0.76,0.68,7
0.78,0.59,7
0.78,0.57,7
0.78,0.68,7
0.79,0.64,7
0.79,0.56,7
0.77,0.65,7
0.79,0.67,7
0.8,0.57,7
0.79,0.61,7
0.79,0.69,7
0.81,0.6,7
0.8,0.58,7
0.79,0.68,7
0.8,0.64,7
0.81,0.56,7
0.8,0.66,7
0.81,0.68,7
0.82,0.57,7
0.81,0.61,7
0.81,0.69,7
0.83,0.6,7
0.82,0.58,7
0.82,0.68,7
0.84,0.64,7
0.84,0.56,7
0.82,0.66,7
0.82,0.68,7
0.84,0.57,7
0.85,0.62,7
0.87,0.71,7
0.92,0.62,7
0.96,0.62,7
0.99,0.74,7
1.03,0.71,7
1.07,0.64,7
1.1,0.75,7
1.15,0.78,7
1.19,0.69,7
1.23,0.74,7
1.27,0.84,7
1.32,0.75,7
1.34,0.74,7
1.37,0.86,7
1.41,0.82,7
1.44,0.75,7
1.45,0.85,7
1.49,0.88,7
1.51,0.77,7
1.51,0.82,7
1.51,0.9,7
1.53,0.81,7
1.53,0.79,7
1.53,0.9,7
1.54,0.85,7
1.54,0.78,7
1.53,0.87,7
1.55,0.88,7
1.55,0.78,7
1.54,0.82,7
1.54,0.9,7
1.56,0.8,7
1.55,0.79,7
1.55,0.89,7
1.56,0.85,7
1.56,0.77,7
1.55,0.86,7
1.55,0.88,7
1.56,0.77,7
1.55,0.81,7
1.55,0.89,7
1.57,0.79,7
1.56,0.78,7
1.56,0.88,7
1.57,0.83,7
1.56,0.76,7
1.55,0.85,7
1.56,0.86,7
1.57,0.76,7
1.56,0.8,7
1.56,0.88,7
1.57,0.78,7
1.56,0.77,7
1.56,0.87,7
1.56,0.82,7
1.57,0.75,7
1.56,0.84,7
1.59,0.85,7
1.61,0.75,7
1.61,0.8,7
1.63,0.87,7
1.64,0.77,7
1.63,0.76,7
1.63,0.87,7
1.64,0.82,7
1.64,0.74,7
1.63,0.84,7
1.64,0.84,7
1.64,0.74,7
1.63,0.79,7
1.63,0.86,7
1.65,0.76,7
1.64,0.75,7
1.64,0.86,7
1.66,0.8,7
1.65,0.73,7
1.63,0.83,7
1.64,0.84,7
1.65,0.74,7
1.63,0.79,7
1.64,0.86,7
1.65,0.76,7
1.64,0.74,7
1.64,0.85,7
1.65,0.8,7
1.64,0.73,7
1.63,0.83,7
1.64,0.83,7
1.64,0.73,7
1.62,0.77,7
1.62,0.84,7
1.63,0.74,7
1.62,0.73,7
1.61,0.83,7
1.62,0.78,7
1.62,0.71,7
1.61,0.81,7
1.62,0.82,7
1.63,0.71,7
1.62,0.77,7
1.62,0.84,7
1.64,0.73,7
1.63,0.73,7
1.63,0.83,7
1.64,0.78,7
1.63,0.7,7
1.61,0.8,7
1.62,0.81,7
1.63,0.7,7
1.62,0.75,7
1.63,0.83,7
1.64,0.73,7
1.63,0.72,7
1.62,0.82,7
1.64,0.77,7
1.63,0.69,7
1.62,0.8,7
1.63,0.81,7
1.63,0.7,7
1.62,0.76,7
1.62,0.83,7
1.63,0.73,7
1.62,0.72,7
1.63,0.83,7
1.64,0.78,7
1.63,0.71,7
1.62,0.81,7
1.63,0.81,7
1.63,0.71,7
1.62,0.76,7
1.63,0.83,7
1.64,0.73,7
1.63,0.73,7
1.62,0.83,7
1.63,0.78,7
1.62,0.71,7
1.61,0.82,7
1.62,0.82,7
1.62,0.72,7
1.6,0.77,7
1.61,0.85,7
1.62,0.74,7
1.61,0.74,7
1.6,0.84,7
1.62,0.79,7
1.61,0.72,7
1.59,0.82,7
1.6,0.83,7
1.61,0.73,7
1.59,0.79,7
1.6,0.86,7
1.61,0.76,7
1.6,0.76,7
1.59,0.86,7
1.61,0.81,7
1.6,0.74,7
1.58,0.85,7
1.6,0.85,7
1.6,0.75,7
1.58,0.81,7
1.59,0.87,7
1.6,0.77,7
1.59,0.77,7
1.59,0.87,7
1.6,0.81,7
1.59,0.74,7
1.58,0.84,7
1.6,0.84,7
1.61,0.74,7
1.6,0.8,7
1.61,0.86,7
1.62,0.76,7
1.61,0.76,7
1.6,0.86,7
1.61,0.8,7
1.6,0.74,7
1.59,0.84,7
1.6,0.83,7
1.61,0.73,7
1.6,0.79,7
1.61,0.86,7
1.61,0.75,7
1.6,0.75,7
1.6,0.86,7
1.62,0.79,7
1.61,0.73,7
1.59,0.84,7
1.59,0.83,7
1.59,0.73,7
1.57,0.79,7
1.58,0.86,7
1.59,0.75,7
1.58,0.75,7
1.59,0.86,7
1.6,0.79,7
1.59,0.73,7
1.58,0.84,7
1.58,0.83,7
1.58,0.74,7
1.57,0.8,7
1.57,0.86,7
1.58,0.75,7
1.57,0.75,7
1.57,0.85,7
1.58,0.79,7
1.57,0.73,7
1.57,0.84,7
1.58,0.84,7
1.58,0.74,7
1.57,0.8,7
1.58,0.86,7
1.59,0.75,7
1.58,0.76,7
1.58,0.86,8
1.6,0.8,8
1.59,0.75,8
1.58,0.86,8
1.59,0.85,8
1.6,0.75,8
1.59,0.81,8
1.6,0.87,8
1.61,0.77,8
1.6,0.78,8
1.6,0.88,8
1.61,0.81,8
1.6,0.76,8
1.59,0.86,8
1.6,0.86,8
1.6,0.76,8
1.58,0.82,8
1.59,0.88,8
1.6,0.76,8
1.59,0.77,8
1.59,0.87,8
1.6,0.8,8
1.58,0.74,8
1.57,0.85,8
1.58,0.84,8
1.58,0.74,8
1.57,0.8,8
1.58,0.86,8
1.6,0.75,8
1.59,0.76,8
1.59,0.86,8
1.61,0.79,8
1.59,0.74,8
1.58,0.84,8
1.59,0.83,8
1.59,0.74,8
1.57,0.8,8
1.59,0.86,8
1.6,0.75,8
1.59,0.76,8
1.58,0.85,8
1.6,0.79,8
1.58,0.74,8
1.57,0.84,8
1.58,0.83,8
1.58,0.74,8
1.56,0.8,8
1.57,0.85,8
1.58,0.75,8
1.57,0.76,8
1.57,0.86,8
1.59,0.79,8
1.57,0.74,8
1.56,0.85,8
1.58,0.84,8
1.58,0.74,8
1.56,0.81,8
1.58,0.86,8
1.59,0.75,8
1.57,0.77,8
1.57,0.87,8
1.58,0.8,8
1.57,0.74,8
1.56,0.85,8
1.57,0.84,8
1.57,0.75,8
1.57,0.82,8
1.58,0.87,8
1.59,0.76,8
1.58,0.77,8
1.58,0.86,8
1.59,0.79,8
1.58,0.74,8
1.57,0.85,8
1.58,0.84,8
1.59,0.74,8
1.57,0.81,8
1.59,0.86,8
1.59,0.75,8
1.58,0.77,8
1.58,0.86,8
1.6,0.79,8
1.59,0.74,8
1.58,0.85,8
1.59,0.84,8
1.59,0.74,8
1.58,0.8,8
1.59,0.84,8
1.6,0.73,8
1.59,0.75,8
1.59,0.84,8
1.6,0.78,8
1.59,0.74,8
1.58,0.85,8
1.6,0.83,8
1.6,0.74,8
1.58,0.81,8
1.6,0.86,8
1.61,0.75,8
1.59,0.77,8
1.59,0.86,8
1.6,0.8,8
1.59,0.75,8
1.58,0.86,8
1.6,0.85,8
1.6,0.76,8
1.58,0.83,8
1.59,0.87,8
1.6,0.77,8
1.58,0.78,8
1.58,0.88,8
1.6,0.81,8
1.59,0.76,8
1.58,0.87,8
1.6,0.85,8
1.6,0.76,8
1.58,0.83,8
1.59,0.87,8
1.59,0.76,8
1.58,0.78,8
1.58,0.88,8
1.6,0.81,8
1.59,0.77,8
1.58,0.88,8
1.6,0.86,8
1.59,0.76,8
1.58,0.84,8
1.59,0.88,8
1.59,0.78,8
1.58,0.8,8
1.58,0.9,8
1.6,0.83,8
1.59,0.78,8
1.59,0.89,8
1.6,0.88,8
1.6,0.79,8
1.58,0.86,8
1.59,0.91,8
1.59,0.8,8
1.58,0.83,8
1.58,0.92,8
1.6,0.84,8
1.59,0.8,8
1.58,0.91,8
1.59,0.89,8
1.59,0.8,8
1.56,0.88,8
1.58,0.92,8
1.58,0.82,8
1.57,0.84,8
1.58,0.94,8
1.6,0.87,8
1.59,0.83,8
1.59,0.94,8
1.6,0.91,8
1.6,0.82,8
1.58,0.9,8
1.59,0.95,8
1.6,0.84,8
1.59,0.87,8
1.58,0.96,8
1.6,0.89,8
1.59,0.84,8
1.59,0.95,8
1.6,0.93,8
1.6,0.83,8
1.58,0.91,8
1.59,0.96,8
1.6,0.85,8
1.59,0.88,8
1.59,0.98,8
1.61,0.9,8
1.6,0.86,8
1.59,0.97,8
1.6,0.94,8
1.6,0.85,8
1.58,0.93,8
1.59,0.97,8
1.61,0.86,8
1.6,0.89,8
1.6,0.98,8
1.62,0.9,8
1.61,0.87,8
1.6,0.98,8
1.61,0.96,8
1.61,0.87,8
1.59,0.95,8
1.6,0.99,8
1.61,0.89,8
1.6,0.92,8
1.59,1.02,8
1.61,0.94,8
1.6,0.91,8
1.6,1.02,8
1.61,0.99,8
1.61,0.91,8
1.58,0.99,8
1.59,1.03,8
1.6,0.92,8
1.59,0.95,8
1.59,1.04,8
1.61,0.95,8
1.6,0.92,8
1.6,1.03,8
1.61,1.0,8
1.62,0.92,8
1.6,1.0,8
1.61,1.04,8
1.62,0.93,8
1.6,0.96,8
1.6,1.05,8
1.62,0.96,8
1.61,0.93,8
1.61,1.04,8
1.63,1.01,8
1.63,0.93,8
1.61,1.01,8
1.62,1.05,8
1.62,0.94,8
1.61,0.97,8
1.61,1.06,8
1.64,0.97,8
1.63,0.94,8
1.63,1.05,8
1.64,1.02,8
1.65,0.93,8
1.62,1.01,8
1.63,1.04,8
1.63,0.94,8
1.62,0.97,8
1.62,1.06,8
1.64,0.97,8
1.63,0.95,8
1.62,1.06,8
1.63,1.03,8
1.63,0.94,8
1.62,1.02,8
1.63,1.05,8
1.63,0.94,8
1.63,0.98,8
1.63,1.06,8
1.64,0.98,8
1.63,0.94,8
1.62,1.05,8
1.64,1.02,8
1.64,0.93,8
1.63,1.02,8
1.64,1.05,8
1.65,0.94,8
1.64,0.98,8
1.65,1.06,8
1.66,0.98,8
1.66,0.95,8
1.65,1.06,8
1.67,1.03,8
1.67,0.94,8
1.65,1.03,8
1.66,1.06,8
1.66,0.95,8
1.66,0.98,8
1.65,1.07,8
1.68,0.99,8
1.67,0.96,8
1.67,1.08,8
1.68,1.04,8
1.68,0.95,8
1.67,1.04,8
1.68,1.07,8
1.68,0.97,8
1.67,1.01,8
1.67,1.1,8
1.69,1.01,8
1.67,0.98,8
1.67,1.09,8
1.68,1.06,8
1.68,0.97,8
1.66,1.06,8
1.67,1.09,8
1.68,0.98,8
1.66,1.01,8
1.66,1.1,8
1.67,1.01,8
1.67,0.99,8
1.66,1.1,8
1.67,1.06,8
1.68,0.98,8
1.66,1.07,8
1.67,1.09,8
1.67,0.98,8
1.67,1.02,8
1.67,1.11,8
1.69,1.01,8
1.68,0.99,8
1.68,1.09,8
1.68,1.05,8
1.68,0.97,8
1.66,1.06,8
1.68,1.09,8
1.69,0.98,8
1.68,1.02,8
1.68,1.11,8
1.7,1.02,8
1.69,1.0,8
1.69,1.1,8
1.7,1.06,8
1.7,0.98,8
1.68,1.07,8
1.69,1.09,8
1.69,0.98,8
1.68,1.03,8
1.68,1.11,8
1.7,1.02,8
1.69,0.99,8
1.68,1.1,8
1.69,1.06,8
1.7,0.97,8
1.68,1.06,8
1.7,1.09,8
1.7,0.98,8
1.7,1.02,8
1.71,1.1,8
1.73,1.0,8
1.72,0.98,8
1.71,1.09,8
1.72,1.05,8
1.72,0.97,8
1.7,1.06,8
1.71,1.08,8
1.71,0.97,8
1.7,1.01,8
1.7,1.09,8
1.72,0.99,8
1.71,0.97,8
1.71,1.09,8
1.73,1.05,8
1.73,0.96,8
1.72,1.06,8
1.73,1.08,8
1.73,0.97,8
1.72,1.01,8
1.72,1.1,8
1.74,1.0,8
1.72,0.99,8
1.72,1.1,8
1.73,1.05,8
1.73,0.97,8
1.71,1.06,8
1.72,1.08,8
1.72,0.97,8
1.71,1.01,8
1.71,1.09,8
1.73,1.0,8
1.72,0.98,8
1.72,1.09,8
1.73,1.05,8
1.71,0.96,8
1.68,1.06,8
1.67,1.07,8
1.64,0.95,8
1.6,0.98,8
1.57,1.06,8
1.56,0.96,8
1.52,0.93,8
1.48,1.02,8
1.47,0.97,8
1.44,0.88,8
1.39,0.96,8
1.38,0.97,8
1.35,0.85,8
1.32,0.88,8
1.29,0.95,8
1.29,0.84,8
1.26,0.82,8
1.24,0.92,8
1.23,0.87,8
1.21,0.78,8
1.18,0.88,8
1.17,0.89,8
1.17,0.78,8
1.15,0.82,8
1.15,0.9,8
1.16,0.8,8
1.15,0.78,8
1.14,0.89,8
1.15,0.84,8
1.15,0.76,8
1.13,0.86,8
1.14,0.87,8
1.14,0.76,8
1.13,0.81,8
1.14,0.89,8
1.16,0.79,8
1.16,0.78,8
1.16,0.88,8
1.17,0.84,8
1.18,0.76,8
1.16,0.86,8
1.17,0.87,8
1.18,0.77,8
1.17,0.81,8
1.16,0.89,8
1.18,0.79,8
1.17,0.77,8
1.17,0.88,8
1.18,0.83,8
1.18,0.75,8
1.17,0.85,8
1.18,0.86,8
1.19,0.76,8
1.19,0.8,8
1.19,0.87,8
1.22,0.77,8
1.21,0.76,8
1.21,0.87,8
1.22,0.82,8
1.21,0.74,8
1.19,0.84,8
1.2,0.85,8
1.2,0.75,8
1.19,0.8,8
1.19,0.87,8
1.21,0.77,8
1.19,0.76,8
1.19,0.86,8
1.19,0.81,8
1.19,0.73,8
1.17,0.83,8
1.18,0.84,8
1.18,0.73,8
1.17,0.78,8
1.17,0.86,8
1.19,0.76,8
1.18,0.75,8
1.18,0.85,8
1.19,0.8,8
1.19,0.73,8
1.18,0.83,8
1.19,0.83,8
1.19,0.73,8
1.19,0.77,8
1.19,0.84,8
1.21,0.74,8
1.2,0.74,8
1.2,0.84,8
1.22,0.79,8
1.21,0.72,8
1.2,0.82,8
1.21,0.82,8
1.22,0.71,8
1.2,0.77,8
1.21,0.84,8
1.23,0.74,8
1.21,0.73,8
1.2,0.84,8
1.21,0.78,8
1.22,0.71,8
1.22,0.82,8
1.26,0.83,8
1.3,0.74,8
1.33,0.82,8
1.37,0.9,8
1.43,0.81,8
1.47,0.82,8
1.51,0.94,8
1.56,0.89,8
1.6,0.83,8
1.63,0.95,8
1.68,0.96,8
1.72,0.86,8
1.74,0.92,8
1.78,1.0,8
1.82,0.89,8
1.83,0.89,8
1.84,1.0,8
1.87,0.95,8
1.87,0.88,8
1.87,0.98,8
1.89,0.98,8
1.89,0.87,8
1.88,0.93,8
1.88,0.99,8
1.89,0.88,8
1.87,0.88,8
1.87,0.98,8
1.88,0.92,8
1.87,0.85,8
1.86,0.96,8
1.87,0.96,8
1.87,0.85,8
1.86,0.9,8
1.87,0.97,8
1.88,0.86,8
1.87,0.85,8
1.86,0.95,8
1.87,0.89,8
1.86,0.83,8
1.85,0.93,8
1.86,0.93,8
1.86,0.82,8
1.85,0.88,8
1.86,0.94,8
1.87,0.83,8
1.86,0.83,8
1.86,0.92,8
1.87,0.86,8
1.86,0.8,8
1.85,0.9,8
1.86,0.9,8
1.87,0.8,8
1.86,0.85,8
1.87,0.91,8
1.88,0.8,8
1.87,0.8,8
1.87,0.9,8
1.88,0.84,8
1.87,0.78,8
1.86,0.88,8
1.87,0.87,8
1.87,0.77,8
1.86,0.83,8
1.86,0.89,8
1.87,0.78,8
1.86,0.78,8
1.85,0.88,8
1.86,0.81,8
1.85,0.75,8
1.83,0.85,8
1.84,0.85,8
1.84,0.75,8
1.83,0.81,8
1.84,0.87,8
1.85,0.76,8
1.84,0.76,8
1.84,0.86,8
1.85,0.8,8
1.84,0.74,8
1.83,0.84,8
1.84,0.84,8
1.84,0.73,8
1.82,0.79,8
1.83,0.85,8
1.84,0.74,8
1.83,0.75,8
1.83,0.84,8
1.84,0.78,8
1.83,0.72,8
1.81,0.82,8
1.82,0.81,8
1.81,0.71,8
1.79,0.77,8
1.8,0.83,8
1.81,0.72,8
1.79,0.73,8
1.79,0.83,8
1.81,0.77,8
1.79,0.7,8
1.79,0.81,8
1.8,0.8,8
1.8,0.7,8
1.79,0.76,8
1.8,0.82,8
1.81,0.71,8
1.8,0.72,8
1.79,0.82,8
1.8,0.76,8
1.79,0.7,8
1.78,0.8,8
1.79,0.79,8
1.79,0.69,8
1.77,0.74,8
1.78,0.79,8
1.8,0.68,8
1.79,0.68,8
1.78,0.78,8
1.8,0.71,8
1.78,0.65,8
1.77,0.75,8
1.78,0.74,8
1.77,0.64,8
1.75,0.7,8
1.76,0.75,8
1.77,0.65,8
1.76,0.64,8
1.76,0.73,8
1.78,0.67,8
1.77,0.61,8
1.76,0.71,8
1.77,0.71,8
1.77,0.61,8
1.75,0.67,8
1.76,0.72,8
1.77,0.61,8
1.75,0.61,8
1.75,0.71,8
1.76,0.64,8
1.74,0.58,8
1.73,0.69,8
1.74,0.68,8
1.73,0.58,8
1.72,0.65,8
1.73,0.7,8
1.73,0.59,8
1.71,0.6,8
1.7,0.7,8
1.72,0.63,8
1.7,0.58,8
1.69,0.69,8
1.7,0.68,8
1.7,0.59,8
1.68,0.65,8
1.69,0.71,8
1.7,0.6,8
1.69,0.61,8
1.68,0.7,8
1.7,0.63,8
1.68,0.57,8
1.68,0.67,8
1.69,0.66,8
1.69,0.56,8
1.68,0.63,8
1.69,0.68,8
1.69,0.57,8
1.68,0.58,8
1.68,0.68,8
1.69,0.61,8
1.68,0.56,8
1.67,0.66,8
1.68,0.65,8
1.68,0.56,8
1.66,0.63,8
1.66,0.67,8
1.67,0.57,8
1.65,0.58,8
1.65,0.67,8
1.67,0.6,8
1.65,0.55,8
1.65,0.66,8
1.66,0.64,8
1.66,0.55,8
1.64,0.62,8
1.66,0.66,8
1.66,0.55,8
1.65,0.56,8
1.64,0.66,8
1.66,0.58,8
1.64,0.54,8
1.63,0.64,8
1.64,0.63,8
1.64,0.53,8
1.62,0.61,8
1.63,0.66,8
1.63,0.55,8
1.62,0.56,8
1.61,0.66,8
1.63,0.59,8
1.62,0.54,8
1.61,0.65,8
1.62,0.64,8
1.63,0.54,8
1.61,0.61,8
1.61,0.66,8
1.62,0.55,8
1.61,0.57,8
1.61,0.66,8
1.62,0.59,8
1.61,0.55,8
1.61,0.66,8
1.62,0.64,8
1.62,0.55,8
1.61,0.63,9
1.62,0.67,9
1.63,0.57,9
1.62,0.58,9
1.61,0.67,9
1.62,0.6,9
1.61,0.56,9
1.6,0.67,9
1.6,0.66,9
1.6,0.57,9
1.59,0.64,9
1.6,0.68,9
1.6,0.57,9
1.59,0.58,9
1.59,0.68,9
1.6,0.61,9
1.59,0.57,9
1.58,0.68,9
1.58,0.67,9
1.59,0.58,9
1.57,0.65,9
1.59,0.7,9
1.6,0.59,9
1.59,0.61,9
1.6,0.71,9
1.62,0.64,9
1.6,0.6,9
1.6,0.71,9
1.61,0.69,9
1.6,0.6,9
1.58,0.68,9
1.59,0.73,9
1.6,0.62,9
1.58,0.64,9
1.58,0.74,9
1.59,0.67,9
1.57,0.63,9
1.56,0.74,9
1.57,0.72,9
1.57,0.63,9
1.55,0.71,9
1.57,0.76,9
1.57,0.65,9
1.56,0.68,9
1.56,0.78,9
1.58,0.71,9
1.58,0.67,9
1.58,0.78,9
1.59,0.76,9
1.6,0.67,9
1.58,0.75,9
1.59,0.79,9
1.6,0.69,9
1.58,0.71,9
1.58,0.81,9
1.59,0.74,9
1.58,0.7,9
1.57,0.82,9
1.58,0.8,9
1.59,0.71,9
1.57,0.79,9
1.57,0.83,9
1.57,0.73,9
1.56,0.75,9
1.55,0.85,9
1.57,0.79,9
1.56,0.75,9
1.55,0.87,9
1.56,0.85,9
1.56,0.76,9
1.54,0.83,9
1.55,0.88,9
1.55,0.77,9
1.55,0.8,9
1.55,0.9,9
1.57,0.83,9
1.57,0.8,9
1.56,0.91,9
1.57,0.89,9
1.58,0.8,9
1.56,0.88,9
1.57,0.93,9
1.58,0.82,9
1.57,0.85,9
1.57,0.94,9
1.59,0.86,9
1.58,0.82,9
1.57,0.93,9
1.58,0.9,9
1.58,0.81,9
1.56,0.89,9
1.57,0.94,9
1.57,0.83,9
1.56,0.86,9
1.56,0.95,9
1.58,0.87,9
1.57,0.83,9
1.57,0.94,9
1.58,0.91,9
1.58,0.83,9
1.57,0.91,9
1.58,0.96,9
1.58,0.85,9
1.57,0.88,9
1.57,0.97,9
1.58,0.9,9
1.57,0.87,9
1.56,0.98,9
1.57,0.95,9
1.57,0.86,9
1.55,0.95,9
1.56,0.98,9
1.56,0.88,9
1.55,0.9,9
1.54,0.99,9
1.56,0.91,9
1.55,0.88,9
1.54,0.98,9
1.55,0.96,9
1.55,0.87,9
1.54,0.95,9
1.55,0.98,9
1.55,0.88,9
1.54,0.9,9
1.53,0.99,9
1.55,0.91,9
1.54,0.88,9
1.53,0.99,9
1.54,0.96,9
1.54,0.87,9
1.53,0.95,9
1.54,0.99,9
1.54,0.88,9
1.53,0.9,9
1.53,0.99,9
1.54,0.91,9
1.54,0.87,9
1.53,0.98,9
1.55,0.96,9
1.55,0.86,9
1.53,0.94,9
1.55,0.98,9
1.55,0.87,9
1.54,0.89,9
1.54,0.98,9
1.57,0.9,9
1.56,0.87,9
1.56,0.97,9
1.57,0.95,9
1.57,0.85,9
1.55,0.94,9
1.56,0.97,9
1.56,0.86,9
1.55,0.89,9
1.55,0.97,9
1.57,0.89,9
1.56,0.86,9
1.55,0.97,9
1.56,0.94,9
1.56,0.85,9
1.54,0.93,9
1.55,0.97,9
1.56,0.86,9
1.55,0.89,9
1.55,0.98,9
1.57,0.89,9
1.56,0.86,9
1.56,0.97,9
1.56,0.94,9
1.57,0.85,9
1.55,0.93,9
1.55,0.96,9
1.56,0.86,9
1.55,0.88,9
1.54,0.97,9
1.56,0.88,9
1.55,0.85,9
1.55,0.96,9
1.55,0.92,9
1.56,0.84,9
1.54,0.92,9
1.55,0.95,9
1.55,0.84,9
1.55,0.88,9
1.54,0.96,9
1.56,0.88,9
1.55,0.85,9
1.55,0.95,9
1.56,0.92,9
1.57,0.84,9
1.55,0.92,9
1.55,0.95,9
1.56,0.84,9
1.54,0.87,9
1.54,0.95,9
1.56,0.87,9
1.55,0.83,9
1.54,0.94,9
1.55,0.9,9
1.55,0.81,9
1.53,0.89,9
1.54,0.93,9
1.55,0.82,9
1.54,0.85,9
1.54,0.93,9
1.57,0.84,9
1.57,0.8,9
1.56,0.9,9
1.57,0.87,9
1.57,0.78,9
1.56,0.86,9
1.57,0.89,9
1.57,0.79,9
1.57,0.82,9
1.56,0.9,9
1.58,0.82,9
1.57,0.78,9
1.57,0.88,9
1.58,0.85,9
1.58,0.77,9
1.56,0.85,9
1.57,0.89,9
1.58,0.78,9
1.56,0.81,9
1.56,0.89,9
1.57,0.8,9
1.56,0.77,9
1.55,0.87,9
1.56,0.84,9
1.56,0.75,9
1.54,0.83,9
1.55,0.86,9
1.55,0.75,9
1.54,0.79,9
1.54,0.87,9
1.55,0.78,9
1.55,0.75,9
1.54,0.86,9
1.55,0.82,9
1.55,0.73,9
1.53,0.81,9
1.54,0.84,9
1.55,0.73,9
1.54,0.76,9
1.54,0.85,9
1.56,0.76,9
1.55,0.73,9
1.54,0.83,9
1.55,0.8,9
1.55,0.71,9
1.53,0.8,9
1.54,0.83,9
1.54,0.72,9
1.53,0.75,9
1.53,0.84,9
1.55,0.74,9
1.54,0.72,9
1.53,0.82,9
1.54,0.79,9
1.54,0.71,9
1.52,0.8,9
1.52,0.83,9
1.53,0.72,9
1.52,0.75,9
1.51,0.83,9
1.53,0.74,9
1.51,0.72,9
1.51,0.83,9
1.52,0.79,9
1.52,0.7,9
1.5,0.79,9
1.51,0.81,9
1.51,0.7,9
1.5,0.74,9
1.5,0.82,9
1.51,0.73,9
1.5,0.71,9
1.49,0.81,9
1.5,0.77,9
1.5,0.68,9
1.48,0.77,9
1.49,0.79,9
1.49,0.68,9
1.48,0.72,9
1.48,0.8,9
1.49,0.71,9
1.48,0.68,9
1.47,0.79,9
1.48,0.75,9
1.48,0.66,9
1.46,0.75,9
1.47,0.78,9
1.47,0.67,9
1.46,0.7,9
1.45,0.78,9
1.46,0.69,9
1.46,0.67,9
1.46,0.77,9
1.46,0.74,9
1.45,0.65,9
1.42,0.73,9
1.41,0.75,9
1.39,0.64,9
1.36,0.67,9
1.32,0.74,9
1.31,0.64,9
1.28,0.6,9
1.24,0.69,9
1.22,0.64,9
1.2,0.54,9
1.16,0.62,9
1.13,0.63,9
1.11,0.51,9
1.08,0.54,9
1.05,0.61,9
1.05,0.51,9
1.02,0.48,9
0.99,0.57,9
0.98,0.54,9
0.97,0.45,9
0.93,0.54,9
0.93,0.56,9
0.92,0.46,9
0.89,0.49,9
0.88,0.57,9
0.89,0.48,9
0.87,0.46,9
0.85,0.56,9
0.86,0.52,9
0.85,0.44,9
0.84,0.53,9
0.84,0.54,9
0.84,0.44,9
0.83,0.48,9
0.83,0.56,9
0.84,0.47,9
0.83,0.45,9
0.83,0.56,9
0.84,0.52,9
0.85,0.44,9
0.84,0.53,9
0.85,0.56,9
0.85,0.45,9
0.84,0.49,9
0.84,0.56,9
0.86,0.47,9
0.85,0.45,9
0.85,0.56,9
0.86,0.52,9
0.87,0.44,9
0.85,0.53,9
0.86,0.55,9
0.86,0.45,9
0.85,0.49,9
0.85,0.57,9
0.86,0.48,9
0.86,0.46,9
0.86,0.56,9
0.87,0.52,9
0.88,0.44,9
0.86,0.53,9
0.87,0.55,9
0.87,0.45,9
0.85,0.49,9
0.84,0.57,9
0.85,0.47,9
0.83,0.45,9
0.83,0.56,9
0.84,0.51,9
0.84,0.43,9
0.83,0.52,9
0.84,0.54,9
0.85,0.43,9
0.84,0.47,9
0.84,0.55,9
0.86,0.45,9
0.85,0.43,9
0.85,0.54,9
0.87,0.5,9
0.87,0.42,9
0.85,0.51,9
0.86,0.53,9
0.86,0.43,9
0.85,0.47,9
0.85,0.54,9
0.86,0.45,9
0.84,0.43,9
0.82,0.53,9
0.82,0.49,9
0.8,0.41,9
0.78,0.5,9
0.78,0.52,9
0.79,0.42,9
0.77,0.46,9
0.76,0.54,9
0.79,0.44,9
0.79,0.43,9
0.81,0.54,9
0.85,0.5,9
0.89,0.44,9
0.91,0.55,9
0.96,0.58,9
1.0,0.49,9
1.03,0.55,9
1.07,0.64,9
1.13,0.55,9
1.16,0.55,9
1.19,0.66,9
1.24,0.62,9
1.28,0.55,9
1.3,0.65,9
1.33,0.67,9
1.37,0.58,9
1.38,0.63,9
1.4,0.72,9
1.43,0.63,9
1.44,0.62,9
1.45,0.73,9
1.47,0.69,9
1.48,0.61,9
1.46,0.7,9
1.47,0.72,9
1.47,0.61,9
1.46,0.66,9
1.46,0.74,9
1.48,0.64,9
1.47,0.62,9
1.47,0.72,9
1.49,0.68,9
1.49,0.6,9
1.47,0.69,9
1.48,0.71,9
1.48,0.6,9
1.47,0.65,9
1.47,0.73,9
1.49,0.63,9
1.48,0.61,9
1.48,0.72,9
1.5,0.67,9
1.5,0.59,9
1.48,0.69,9
1.49,0.71,9
1.49,0.6,9
1.48,0.65,9
1.47,0.73,9
1.49,0.63,9
1.48,0.62,9
1.47,0.72,9
1.48,0.67,9
1.48,0.59,9
1.47,0.69,9
1.47,0.7,9
1.48,0.6,9
1.47,0.64,9
1.46,0.72,9
1.48,0.62,9
1.47,0.61,9
1.47,0.71,9
1.48,0.67,9
1.48,0.59,9
1.47,0.69,9
1.47,0.7,9
1.47,0.59,9
1.46,0.64,9
1.46,0.71,9
1.48,0.62,9
1.47,0.61,9
1.47,0.71,9
1.47,0.67,9
1.46,0.59,9
1.45,0.69,9
1.46,0.7,9
1.46,0.59,9
1.45,0.64,9
1.45,0.71,9
1.47,0.62,9
1.46,0.6,9
1.46,0.7,9
1.47,0.65,9
1.47,0.58,9
1.46,0.67,9
1.47,0.68,9
1.47,0.58,9
1.46,0.63,9
1.46,0.7,9
1.47,0.6,9
1.46,0.59,9
1.46,0.69,9
1.47,0.64,9
1.46,0.57,9
1.45,0.66,9
1.45,0.68,9
1.45,0.57,9
1.44,0.61,9
1.45,0.69,9
1.46,0.59,9
1.45,0.58,9
1.45,0.69,9
1.46,0.64,9
1.46,0.56,9
1.45,0.66,9
1.46,0.67,9
1.47,0.56,9
1.46,0.61,9
1.46,0.68,9
1.48,0.58,9
1.47,0.58,9
1.47,0.68,9
1.48,0.63,9
1.47,0.55,9
1.46,0.65,9
1.46,0.66,9
1.47,0.55,9
1.46,0.6,9
1.47,0.68,9
1.48,0.58,9
1.47,0.57,9
1.46,0.67,9
1.47,0.61,9
1.47,0.54,9
1.46,0.64,9
1.47,0.65,9
1.48,0.54,9
1.47,0.59,9
1.47,0.67,9
1.49,0.57,9
1.48,0.56,9
1.47,0.66,9
1.49,0.61,9
1.48,0.54,9
1.47,0.64,9
1.48,0.64,9
1.48,0.54,9
1.47,0.59,9
1.48,0.66,9
1.5,0.56,9
1.49,0.54,9
1.48,0.64,9
1.49,0.59,9
1.49,0.52,9
1.47,0.62,9
1.47,0.63,9
1.48,0.53,9
1.47,0.57,9
1.47,0.64,9
1.48,0.54,9
1.47,0.53,9
1.47,0.62,9
1.48,0.57,9
1.48,0.49,9
1.46,0.59,9
1.47,0.59,9
1.47,0.49,9
1.46,0.53,9
1.46,0.6,9
1.48,0.5,9
1.47,0.49,9
1.46,0.59,9
1.48,0.54,9
1.47,0.48,9
1.46,0.58,9
1.47,0.59,9
1.48,0.49,9
1.47,0.54,9
1.47,0.61,9
1.49,0.51,9
1.48,0.5,9
1.48,0.6,9
1.49,0.55,9
1.48,0.47,9
1.47,0.57,9
1.48,0.58,9
1.48,0.48,9
1.47,0.53,9
1.48,0.6,9
1.49,0.5,9
1.49,0.49,9
1.48,0.59,9
1.49,0.53,9
1.49,0.46,9
1.47,0.56,9
1.48,0.57,9
1.48,0.47,9
1.47,0.52,9
1.48,0.59,9
1.49,0.49,9
1.48,0.49,9
1.48,0.59,9
1.5,0.53,9
1.49,0.46,9
1.48,0.56,9
1.48,0.57,9
1.49,0.47,9
1.48,0.52,9
1.49,0.58,9
1.5,0.48,9
1.49,0.47,9
1.48,0.57,9
1.49,0.52,9
1.49,0.45,9
1.47,0.55,9
1.48,0.56,9
1.49,0.45,9
1.48,0.5,9
1.49,0.57,9
1.5,0.46,9
1.5,0.46,9
1.49,0.56,9
1.5,0.51,9
1.49,0.44,9
1.48,0.54,9
1.49,0.55,9
1.49,0.44,9
1.48,0.49,9
1.49,0.56,9
1.5,0.45,9
1.49,0.44,9
1.49,0.54,9
1.5,0.49,9
1.49,0.42,9
1.48,0.52,9
1.49,0.52,9
1.49,0.42,9
1.48,0.47,9
1.49,0.54,9
1.5,0.44,9
1.49,0.44,10
1.49,0.54,10
1.51,0.48,10
1.5,0.42,10
1.49,0.52,10
1.5,0.52,10
1.5,0.42,10
1.49,0.48,10
1.5,0.54,10
1.51,0.44,10
1.5,0.44,10
1.5,0.53,10
1.51,0.48,10
1.5,0.41,10
1.49,0.51,10
1.5,0.5,10
1.5,0.4,10
1.49,0.46,10
1.51,0.52,10
1.52,0.42,10
1.5,0.42,10
1.5,0.52,10
1.51,0.47,10
1.5,0.41,10
1.49,0.5,10
1.5,0.51,10
1.5,0.41,10
1.49,0.46,10
1.5,0.53,10
1.51,0.43,10
1.49,0.44,10
1.49,0.53,10
1.5,0.48,10
1.49,0.42,10
1.48,0.52,10
1.49,0.52,10
1.5,0.42,10
1.49,0.47,10
1.5,0.54,10
1.51,0.43,10
1.5,0.43,10
1.5,0.53,10
1.51,0.47,10
1.5,0.41,10
1.49,0.51,10
1.49,0.51,10
1.5,0.41,10
1.48,0.47,10
1.49,0.53,10
1.5,0.43,10
1.5,0.43,10
1.49,0.53,10
1.51,0.47,10
1.5,0.41,10
1.49,0.51,10
1.5,0.51,10
1.5,0.41,10
1.49,0.47,10
1.49,0.53,10
1.5,0.43,10
1.49,0.43,10
1.49,0.53,10
1.51,0.47,10
1.5,0.4,10
1.49,0.5,10
1.5,0.5,10
1.5,0.4,10
1.48,0.46,10
1.49,0.52,10
1.5,0.42,10
1.48,0.42,10
1.48,0.52,10
1.49,0.46,10
1.47,0.4,10
1.46,0.5,10
1.46,0.51,10
1.46,0.41,10
1.45,0.46,10
1.46,0.53,10
1.48,0.42,10
1.47,0.42,10
1.46,0.53,10
1.47,0.47,10
1.46,0.41,10
1.45,0.51,10
1.46,0.51,10
1.46,0.41,10
1.45,0.46,10
1.46,0.52,10
1.47,0.42,10
1.46,0.42,10
1.45,0.52,10
1.46,0.47,10
1.45,0.41,10
1.44,0.51,10
1.45,0.51,10
1.45,0.41,10
1.44,0.46,10
1.46,0.53,10
1.47,0.42,10
1.46,0.43,10
1.46,0.52,10
1.47,0.46,10
1.46,0.4,10
1.45,0.5,10
1.46,0.5,10
1.46,0.41,10
1.45,0.46,10
1.46,0.53,10
1.47,0.42,10
1.45,0.43,10
1.45,0.52,10
1.46,0.46,10
1.44,0.4,10
1.43,0.51,10
1.44,0.5,10
1.44,0.41,10
1.43,0.46,10
1.44,0.53,10
1.45,0.42,10
1.44,0.43,10
1.44,0.53,10
1.45,0.47,10
1.45,0.41,10
1.44,0.51,10
1.45,0.5,10
1.45,0.41,10
1.43,0.47,10
1.44,0.53,10
1.45,0.43,10
1.44,0.43,10
1.44,0.53,10
1.45,0.47,10
1.44,0.41,10
1.43,0.52,10
1.45,0.52,10
1.45,0.42,10
1.43,0.47,10
1.45,0.53,10
1.46,0.43,10
1.45,0.44,10
1.45,0.54,10
1.46,0.48,10
1.44,0.42,10
1.43,0.53,10
1.44,0.52,10
1.45,0.43,10
1.43,0.48,10
1.44,0.54,10
1.45,0.44,10
1.44,0.45,10
1.44,0.55,10
1.45,0.49,10
1.44,0.43,10
1.43,0.54,10
1.44,0.53,10
1.44,0.44,10
1.43,0.5,10
1.45,0.55,10
1.46,0.45,10
1.45,0.45,10
1.44,0.55,10
1.46,0.5,10
1.44,0.44,10
1.43,0.56,10
1.44,0.55,10
1.44,0.46,10
1.42,0.53,10
1.43,0.59,10
1.44,0.48,10
1.43,0.48,10
1.43,0.58,10
1.44,0.52,10
1.43,0.46,10
1.42,0.57,10
1.44,0.57,10
1.44,0.47,10
1.43,0.54,10
1.44,0.6,10
1.45,0.49,10
1.44,0.5,10
1.44,0.6,10
1.45,0.54,10
1.43,0.48,10
1.42,0.59,10
1.43,0.58,10
1.42,0.49,10
1.41,0.55,10
1.42,0.61,10
1.42,0.5,10
1.41,0.51,10
1.41,0.61,10
1.42,0.55,10
1.41,0.49,10
1.41,0.6,10
1.42,0.59,10
1.42,0.5,10
1.41,0.56,10
1.42,0.62,10
1.43,0.52,10
1.42,0.53,10
1.42,0.63,10
1.43,0.57,10
1.42,0.51,10
1.41,0.62,10
1.43,0.62,10
1.43,0.52,10
1.42,0.59,10
1.43,0.65,10
1.44,0.55,10
1.43,0.56,10
1.43,0.66,10
1.44,0.6,10
1.43,0.55,10
1.42,0.65,10
1.43,0.65,10
1.44,0.55,10
1.43,0.62,10
1.44,0.67,10
1.45,0.57,10
1.43,0.58,10
1.43,0.68,10
1.44,0.62,10
1.42,0.57,10
1.42,0.67,10
1.43,0.67,10
1.43,0.57,10
1.41,0.64,10
1.43,0.7,10
1.43,0.6,10
1.42,0.61,10
1.42,0.7,10
1.44,0.64,10
1.43,0.58,10
1.42,0.69,10
1.43,0.69,10
1.44,0.59,10
1.43,0.66,10
1.44,0.72,10
1.45,0.61,10
1.44,0.62,10
1.44,0.71,10
1.45,0.64,10
1.44,0.59,10
1.44,0.7,10
1.45,0.69,10
1.45,0.6,10
1.44,0.66,10
1.45,0.71,10
1.45,0.61,10
1.44,0.61,10
1.44,0.71,10
1.45,0.65,10
1.44,0.6,10
1.43,0.71,10
1.44,0.7,10
1.44,0.61,10
1.43,0.68,10
1.45,0.73,10
1.45,0.62,10
1.44,0.63,10
1.44,0.72,10
1.46,0.65,10
1.44,0.6,10
1.44,0.71,10
1.44,0.71,10
1.44,0.61,10
1.43,0.68,10
1.44,0.73,10
1.44,0.63,10
1.43,0.64,10
1.43,0.74,10
1.44,0.67,10
1.43,0.62,10
1.42,0.73,10
1.43,0.72,10
1.43,0.62,10
1.42,0.69,10
1.43,0.74,10
1.44,0.63,10
1.43,0.64,10
1.43,0.74,10
1.44,0.67,10
1.43,0.62,10
1.43,0.72,10
1.44,0.71,10
1.44,0.61,10
1.42,0.68,10
1.44,0.73,10
1.44,0.62,10
1.43,0.63,10
1.43,0.72,10
1.44,0.65,10
1.43,0.6,10
1.42,0.7,10
1.43,0.7,10
1.43,0.61,10
1.42,0.67,10
1.43,0.72,10
1.44,0.61,10
1.43,0.62,10
1.43,0.71,10
1.45,0.64,10
1.43,0.59,10
1.42,0.7,10
1.43,0.69,10
1.43,0.59,10
1.41,0.66,10
1.42,0.71,10
1.43,0.61,10
1.42,0.62,10
1.42,0.72,10
1.43,0.65,10
1.42,0.6,10
1.42,0.71,10
1.43,0.69,10
1.43,0.59,10
1.41,0.66,10
1.42,0.72,10
1.42,0.61,10
1.42,0.62,10
1.42,0.72,10
1.43,0.65,10
1.43,0.6,10
1.42,0.71,10
1.42,0.69,10
1.41,0.6,10
1.38,0.66,10
1.36,0.71,10
1.34,0.59,10
1.3,0.6,10
1.27,0.68,10
1.26,0.6,10
1.21,0.54,10
1.18,0.64,10
1.16,0.61,10
1.13,0.51,10
1.09,0.57,10
1.08,0.61,10
1.06,0.5,10
1.02,0.51,10
1.0,0.6,10
1.0,0.53,10
0.97,0.48,10
0.94,0.58,10
0.94,0.55,10
0.92,0.46,10
0.89,0.52,10
0.88,0.57,10
0.88,0.46,10
0.85,0.48,10
0.84,0.58,10
0.85,0.51,10
0.83,0.46,10
0.82,0.57,10
0.83,0.55,10
0.82,0.46,10
0.8,0.53,10
0.81,0.58,10
0.82,0.48,10
0.81,0.5,10
0.81,0.59,10
0.83,0.52,10
0.82,0.47,10
0.82,0.58,10
0.83,0.56,10
0.84,0.47,10
0.82,0.54,10
0.84,0.59,10
0.85,0.48,10
0.84,0.5,10
0.84,0.6,10
0.85,0.53,10
0.84,0.49,10
0.84,0.6,10
0.86,0.58,10
0.86,0.49,10
0.84,0.56,10
0.86,0.61,10
0.86,0.5,10
0.85,0.51,10
0.85,0.61,10
0.87,0.54,10
0.87,0.5,10
0.86,0.61,10
0.88,0.59,10
0.88,0.5,10
0.86,0.57,10
0.87,0.61,10
0.88,0.5,10
0.86,0.52,10
0.86,0.61,10
0.87,0.54,10
0.86,0.5,10
0.85,0.61,10
0.86,0.59,10
0.87,0.51,10
0.85,0.58,10
0.87,0.63,10
0.88,0.52,10
0.87,0.53,10
0.87,0.63,10
0.89,0.55,10
0.88,0.51,10
0.87,0.62,10
0.89,0.61,10
0.89,0.52,10
0.87,0.6,10
0.89,0.64,10
0.89,0.53,10
0.88,0.55,10
0.89,0.64,10
0.91,0.57,10
0.89,0.53,10
0.89,0.64,10
0.9,0.62,10
0.9,0.53,10
0.89,0.61,10
0.91,0.65,10
0.91,0.54,10
0.9,0.56,10
0.9,0.65,10
0.92,0.57,10
0.91,0.53,10
0.91,0.63,10
0.93,0.62,10
0.93,0.53,10
0.91,0.6,10
0.92,0.65,10
0.94,0.54,10
0.94,0.56,10
0.97,0.66,10
1.02,0.6,10
1.05,0.57,10
1.08,0.69,10
1.13,0.69,10
1.17,0.62,10
1.2,0.7,10
1.25,0.76,10
1.29,0.66,10
1.32,0.69,10
1.35,0.79,10
1.4,0.72,10
1.42,0.69,10
1.43,0.8,10
1.47,0.79,10
1.5,0.7,10
1.5,0.78,10
1.53,0.83,10
1.56,0.73,10
1.56,0.75,10
1.57,0.84,10
1.59,0.76,10
1.59,0.72,10
1.59,0.83,10
1.6,0.81,10
1.61,0.72,10
1.59,0.79,10
1.6,0.83,10
1.61,0.72,10
1.6,0.74,10
1.6,0.83,10
1.62,0.75,10
1.6,0.71,10
1.6,0.82,10
1.61,0.8,10
1.61,0.71,10
1.59,0.78,10
1.6,0.82,10
1.61,0.71,10
1.61,0.74,10
1.61,0.83,10
1.63,0.75,10
1.62,0.71,10
1.61,0.81,10
1.62,0.79,10
1.62,0.69,10
1.6,0.77,10
1.61,0.81,10
1.61,0.7,10
1.6,0.72,10
1.6,0.81,10
1.62,0.73,10
1.61,0.69,10
1.6,0.79,10
1.61,0.77,10
1.61,0.68,10
1.59,0.76,10
1.6,0.8,10
1.61,0.69,10
1.6,0.72,10
1.6,0.81,10
1.61,0.73,10
1.6,0.7,10
1.6,0.81,10
1.61,0.78,10
1.61,0.69,10
1.59,0.77,10
1.6,0.81,10
1.61,0.7,10
1.6,0.73,10
1.6,0.82,10
1.62,0.73,10
1.61,0.7,10
1.6,0.8,10
1.61,0.77,10
1.61,0.68,10
1.59,0.76,10
1.6,0.8,10
1.61,0.69,10
1.6,0.72,10
1.59,0.81,10
1.61,0.73,10
1.6,0.69,10
1.59,0.8,10
1.6,0.78,10
1.61,0.68,10
1.59,0.76,10
1.6,0.8,10
1.6,0.69,10
1.59,0.72,10
1.59,0.81,10
1.61,0.73,10
1.6,0.69,10
1.59,0.8,10
1.6,0.77,10
1.61,0.68,10
1.59,0.76,10
1.6,0.8,10
1.61,0.7,10
1.6,0.72,10
1.59,0.81,10
1.61,0.73,10
1.6,0.69,10
1.59,0.8,10
1.6,0.78,10
1.6,0.69,10
1.59,0.77,10
1.6,0.81,10
1.6,0.7,10
1.6,0.72,10
1.59,0.81,10
1.61,0.72,10
1.6,0.69,10
1.59,0.8,10
1.6,0.78,10
1.6,0.69,10
1.58,0.78,10
1.59,0.81,10
1.6,0.71,10
1.59,0.74,10
1.59,0.83,10
1.6,0.75,10
1.59,0.71,10
1.58,0.82,10
1.59,0.79,10
1.59,0.7,10
1.57,0.78,10
1.58,0.81,10
1.58,0.71,10
1.57,0.74,10
1.57,0.83,10
1.59,0.74,10
1.58,0.71,10
1.58,0.81,10
1.59,0.78,10
1.6,0.7,10
1.58,0.78,10
1.59,0.82,10
1.59,0.71,10
1.58,0.74,10
1.58,0.82,10
1.6,0.74,10
1.59,0.7,10
1.58,0.81,10
1.59,0.78,10
1.59,0.69,10
1.57,0.78,10
1.57,0.81,10
1.57,0.7,10
1.56,0.73,10
1.56,0.82,10
1.57,0.74,10
1.57,0.71,10
1.57,0.82,10
1.58,0.79,10
1.58,0.71,10
1.56,0.79,10
1.57,0.83,10
1.57,0.72,10
1.56,0.75,10
1.57,0.84,10
1.58,0.76,10
1.58,0.73,10
1.57,0.84,10
1.58,0.82,10
1.59,0.73,10
1.57,0.82,10
1.58,0.85,10
1.58,0.74,10
1.57,0.77,10
1.57,0.86,10
1.58,0.77,10
1.57,0.74,10
1.57,0.85,10
1.58,0.81,10
1.59,0.73,10
1.57,0.81,10
1.58,0.84,10
1.58,0.73,10
1.57,0.77,10
1.57,0.86,10
1.58,0.78,10
1.57,0.74,10
1.57,0.85,10
1.58,0.82,10
1.58,0.73,10
1.57,0.82,10
1.58,0.85,10
1.58,0.74,10
1.57,0.78,10
1.57,0.86,10
1.58,0.78,10
1.57,0.75,10
1.57,0.85,10
1.58,0.82,10
1.58,0.73,10
1.56,0.82,10
1.57,0.85,10
1.58,0.74,11
1.57,0.77,11
1.57,0.86,11
1.59,0.77,11
1.58,0.74,11
1.57,0.84,11
1.58,0.81,11
1.58,0.73,11
1.57,0.81,11
1.58,0.84,11
1.58,0.74,11
1.57,0.77,11
1.57,0.86,11
1.58,0.77,11
1.57,0.74,11
1.57,0.84,11
1.58,0.81,11
1.58,0.72,11
1.57,0.81,11
1.58,0.84,11
1.58,0.74,11
1.58,0.77,11
1.57,0.86,11
1.59,0.78,11
1.58,0.75,11
1.57,0.85,11
1.58,0.82,11
1.58,0.73,11
1.57,0.82,11
1.58,0.85,11
1.58,0.74,11
1.57,0.77,11
1.57,0.86,11
1.58,0.77,11
1.57,0.74,11
1.57,0.85,11
1.58,0.82,11
1.59,0.74,11
1.57,0.82,11
1.57,0.85,11
1.58,0.74,11
1.57,0.78,11
1.56,0.86,11
1.58,0.77,11
1.57,0.75,11
1.57,0.85,11
1.58,0.82,11
1.59,0.74,11
1.57,0.83,11
1.58,0.86,11
1.58,0.75,11
1.57,0.79,11
1.57,0.87,11
1.59,0.78,11
1.58,0.76,11
1.57,0.86,11
1.58,0.82,11
1.58,0.74,11
1.56,0.83,11
1.57,0.86,11
1.57,0.75,11
1.56,0.79,11
1.56,0.87,11
1.58,0.78,11
1.57,0.75,11
1.57,0.86,11
1.58,0.82,11
1.58,0.74,11
1.56,0.83,11
1.57,0.86,11
1.58,0.75,11
1.57,0.78,11
1.57,0.87,11
1.58,0.78,11
1.57,0.75,11
1.57,0.85,11
1.57,0.82,11
1.57,0.73,11
1.56,0.82,11
1.56,0.85,11
1.57,0.74,11
1.57,0.77,11
1.58,0.86,11
1.6,0.76,11
1.59,0.74,11
1.58,0.85,11
1.59,0.82,11
1.59,0.73,11
1.56,0.83,11
1.57,0.85,11
1.57,0.74,11
1.56,0.78,11
1.56,0.86,11
1.58,0.77,11
1.57,0.75,11
1.57,0.86,11
1.58,0.82,11
1.58,0.74,11
1.56,0.83,11
1.57,0.86,11
1.57,0.75,11
1.56,0.79,11
1.56,0.87,11
1.58,0.78,11
1.57,0.76,11
1.57,0.86,11
1.59,0.83,11
1.59,0.74,11
1.58,0.83,11
1.59,0.86,11
1.59,0.75,11
1.58,0.78,11
1.58,0.86,11
1.59,0.77,11
1.58,0.74,11
1.58,0.85,11
1.59,0.82,11
1.59,0.74,11
1.58,0.83,11
1.59,0.85,11
1.59,0.75,11
1.58,0.79,11
1.58,0.87,11
1.6,0.78,11
1.6,0.75,11
1.59,0.86,11
1.6,0.82,11
1.6,0.73,11
1.58,0.82,11
1.59,0.85,11
1.59,0.74,11
1.58,0.78,11
1.57,0.86,11
1.59,0.77,11
1.58,0.74,11
1.58,0.85,11
1.59,0.81,11
1.59,0.73,11
1.57,0.82,11
1.57,0.85,11
1.58,0.75,11
1.56,0.79,11
1.56,0.87,11
1.58,0.78,11
1.57,0.75,11
1.57,0.86,11
1.57,0.82,11
1.57,0.74,11
1.56,0.83,11
1.57,0.86,11
1.58,0.76,11
1.57,0.8,11
1.57,0.89,11
1.59,0.8,11
1.58,0.78,11
1.58,0.89,11
1.59,0.85,11
1.59,0.77,11
1.58,0.87,11
1.59,0.89,11
1.59,0.78,11
1.58,0.82,11
1.58,0.91,11
1.6,0.82,11
1.6,0.8,11
1.6,0.9,11
1.61,0.87,11
1.61,0.79,11
1.6,0.88,11
1.61,0.91,11
1.61,0.8,11
1.6,0.84,11
1.6,0.92,11
1.61,0.83,11
1.6,0.81,11
1.6,0.92,11
1.61,0.88,11
1.62,0.8,11
1.61,0.89,11
1.62,0.91,11
1.62,0.81,11
1.61,0.85,11
1.61,0.93,11
1.62,0.84,11
1.61,0.82,11
1.6,0.92,11
1.61,0.88,11
1.61,0.8,11
1.6,0.9,11
1.6,0.92,11
1.61,0.81,11
1.6,0.86,11
1.6,0.94,11
1.61,0.85,11
1.61,0.83,11
1.6,0.93,11
1.61,0.89,11
1.61,0.81,11
1.6,0.9,11
1.61,0.92,11
1.61,0.81,11
1.6,0.85,11
1.61,0.93,11
1.62,0.83,11
1.61,0.82,11
1.61,0.92,11
1.62,0.88,11
1.62,0.8,11
1.6,0.89,11
1.61,0.9,11
1.62,0.8,11
1.61,0.83,11
1.61,0.92,11
1.62,0.82,11
1.61,0.8,11
1.61,0.91,11
1.63,0.86,11
1.63,0.78,11
1.62,0.88,11
1.63,0.89,11
1.64,0.79,11
1.63,0.83,11
1.63,0.91,11
1.64,0.82,11
1.64,0.8,11
1.63,0.91,11
1.64,0.87,11
1.63,0.79,11
1.62,0.88,11
1.62,0.9,11
1.63,0.79,11
1.62,0.84,11
1.62,0.91,11
1.63,0.82,11
1.62,0.81,11
1.62,0.91,11
1.64,0.87,11
1.64,0.79,11
1.62,0.88,11
1.63,0.9,11
1.63,0.79,11
1.62,0.83,11
1.62,0.91,11
1.63,0.82,11
1.62,0.8,11
1.62,0.9,11
1.63,0.86,11
1.63,0.78,11
1.62,0.88,11
1.63,0.89,11
1.63,0.79,11
1.62,0.83,11
1.62,0.91,11
1.64,0.82,11
1.63,0.81,11
1.62,0.91,11
1.63,0.87,11
1.63,0.79,11
1.61,0.88,11
1.62,0.9,11
1.63,0.8,11
1.62,0.84,11
1.62,0.92,11
1.63,0.82,11
1.63,0.8,11
1.63,0.91,11
1.65,0.87,11
1.65,0.8,11
1.63,0.9,11
1.64,0.91,11
1.64,0.81,11
1.63,0.85,11
1.63,0.93,11
1.64,0.83,11
1.64,0.82,11
1.63,0.92,11
1.65,0.88,11
1.65,0.8,11
1.63,0.9,11
1.64,0.91,11
1.65,0.81,11
1.63,0.85,11
1.64,0.94,11
1.65,0.84,11
1.64,0.83,11
1.64,0.93,11
1.65,0.89,11
1.65,0.81,11
1.64,0.91,11
1.65,0.93,11
1.66,0.82,11
1.64,0.86,11
1.63,0.94,11
1.64,0.84,11
1.6,0.82,11
1.56,0.92,11
1.55,0.88,11
1.52,0.79,11
1.47,0.89,11
1.45,0.89,11
1.42,0.77,11
1.37,0.81,11
1.34,0.88,11
1.33,0.77,11
1.3,0.75,11
1.27,0.84,11
1.26,0.79,11
1.24,0.7,11
1.2,0.79,11
1.18,0.8,11
1.16,0.69,11
1.13,0.73,11
1.11,0.81,11
1.11,0.71,11
1.09,0.69,11
1.07,0.79,11
1.07,0.75,11
1.05,0.67,11
1.03,0.76,11
1.03,0.78,11
1.03,0.67,11
1.01,0.72,11
1.02,0.79,11
1.03,0.69,11
1.02,0.67,11
1.01,0.77,11
1.03,0.73,11
1.03,0.66,11
1.02,0.75,11
1.03,0.77,11
1.04,0.66,11
1.03,0.7,11
1.04,0.78,11
1.05,0.69,11
1.05,0.67,11
1.05,0.78,11
1.06,0.74,11
1.06,0.66,11
1.05,0.76,11
1.06,0.78,11
1.06,0.68,11
1.05,0.73,11
1.06,0.8,11
1.07,0.71,11
1.06,0.69,11
1.06,0.79,11
1.07,0.75,11
1.07,0.67,11
1.06,0.77,11
1.06,0.79,11
1.06,0.68,11
1.05,0.73,11
1.04,0.81,11
1.06,0.71,11
1.04,0.69,11
1.04,0.8,11
1.05,0.75,11
1.04,0.67,11
1.03,0.77,11
1.04,0.79,11
1.05,0.69,11
1.04,0.73,11
1.05,0.81,11
1.06,0.71,11
1.06,0.7,11
1.05,0.8,11
1.07,0.75,11
1.06,0.68,11
1.05,0.78,11
1.06,0.79,11
1.07,0.69,11
1.06,0.74,11
1.06,0.82,11
1.07,0.72,11
1.06,0.7,11
1.07,0.81,11
1.08,0.76,11
1.08,0.69,11
1.07,0.78,11
1.09,0.8,11
1.09,0.7,11
1.09,0.74,11
1.09,0.82,11
1.1,0.72,11
1.09,0.71,11
1.09,0.81,11
1.1,0.77,11
1.09,0.69,11
1.07,0.79,11
1.09,0.81,11
1.11,0.71,11
1.12,0.77,11
1.15,0.85,11
1.21,0.76,11
1.23,0.76,11
1.26,0.87,11
1.31,0.83,11
1.35,0.76,11
1.38,0.87,11
1.42,0.88,11
1.46,0.79,11
1.49,0.84,11
1.52,0.92,11
1.57,0.82,11
1.59,0.82,11
1.62,0.93,11
1.66,0.88,11
1.69,0.81,11
1.7,0.92,11
1.73,0.93,11
1.75,0.84,11
1.75,0.89,11
1.77,0.97,11
1.8,0.88,11
1.8,0.88,11
1.81,0.99,11
1.83,0.94,11
1.83,0.87,11
1.82,0.97,11
1.83,0.98,11
1.83,0.88,11
1.82,0.93,11
1.82,1.0,11
1.84,0.9,11
1.83,0.9,11
1.82,1.0,11
1.84,0.95,11
1.84,0.87,11
1.82,0.97,11
1.83,0.98,11
1.84,0.87,11
1.82,0.92,11
1.83,0.99,11
1.84,0.89,11
1.83,0.88,11
1.83,0.98,11
1.84,0.93,11
1.83,0.86,11
1.81,0.95,11
1.82,0.96,11
1.82,0.86,11
1.81,0.9,11
1.82,0.97,11
1.84,0.87,11
1.83,0.86,11
1.82,0.96,11
1.83,0.91,11
1.83,0.84,11
1.81,0.94,11
1.82,0.95,11
1.83,0.85,11
1.82,0.9,11
1.82,0.97,11
1.83,0.88,11
1.82,0.87,11
1.82,0.97,11
1.83,0.92,11
1.82,0.85,11
1.81,0.95,11
1.83,0.95,11
1.83,0.85,11
1.82,0.9,11
1.82,0.97,11
1.83,0.86,11
1.81,0.85,11
1.81,0.96,11
1.82,0.9,11
1.82,0.83,11
1.8,0.93,11
1.81,0.94,11
1.81,0.84,11
1.8,0.89,11
1.81,0.96,11
1.82,0.85,11
1.81,0.84,11
1.81,0.94,11
1.82,0.88,11
1.81,0.81,11
1.8,0.91,11
1.8,0.92,11
1.8,0.82,11
1.79,0.87,11
1.8,0.94,11
1.81,0.84,11
1.81,0.84,11
1.81,0.94,11
1.82,0.89,11
1.82,0.82,11
1.8,0.92,11
1.81,0.93,11
1.81,0.82,11
1.8,0.87,11
1.8,0.93,11
1.82,0.83,11
1.81,0.83,11
1.8,0.93,11
1.82,0.88,11
1.82,0.81,11
1.8,0.91,11
1.81,0.92,11
1.82,0.82,11
1.8,0.87,11
1.8,0.94,11
1.82,0.84,11
1.81,0.84,11
1.81,0.94,11
1.82,0.89,11
1.81,0.82,11
1.8,0.92,11
1.8,0.93,11
1.8,0.82,11
1.79,0.88,11
1.8,0.95,11
1.81,0.85,11
1.8,0.84,11
1.8,0.94,11
1.81,0.89,11
1.79,0.82,11
1.78,0.92,11
1.79,0.93,11
1.79,0.83,11
1.78,0.88,11
1.78,0.96,11
1.8,0.86,11
1.79,0.85,11
1.79,0.96,11
1.8,0.91,11
1.79,0.84,11
1.77,0.94,11
1.78,0.95,11
1.79,0.85,11
1.78,0.9,11
1.79,0.97,11
1.81,0.87,11
1.8,0.86,11
1.8,0.96,11
1.81,0.91,11
1.79,0.84,11
1.78,0.94,11
1.79,0.95,11
1.79,0.84,11
1.78,0.9,11
1.79,0.97,11
1.8,0.87,11
1.78,0.87,11
1.78,0.97,11
1.79,0.92,11
1.78,0.85,11
1.76,0.95,11
1.78,0.96,11
1.78,0.85,11
1.77,0.91,11
1.77,0.98,11
1.78,0.88,11
1.77,0.87,11
1.77,0.98,11
1.78,0.93,11
1.78,0.86,11
1.77,0.96,11
1.78,0.97,11
1.78,0.87,11
1.77,0.92,11
1.77,0.99,11
1.78,0.89,11
1.77,0.89,11
1.76,0.99,11
1.78,0.94,11
1.77,0.87,11
1.76,0.98,11
1.77,0.98,11
1.77,0.88,11
1.76,0.93,11
1.77,1.0,11
1.79,0.9,11
1.78,0.9,11
1.77,1.0,11
1.79,0.94,11
1.78,0.87,11
1.76,0.97,11
1.77,0.98,11
1.77,0.87,11
1.76,0.93,11
1.77,1.0,11
1.78,0.9,11
1.77,0.9,11
1.77,1.0,11
1.78,0.94,11
1.77,0.88,11
1.76,0.98,11
1.77,0.98,11
1.77,0.88,11
1.76,0.93,11
1.77,1.0,11
1.78,0.89,11
1.77,0.89,11
1.76,0.99,11
1.78,0.93,11
1.77,0.87,11
1.76,0.97,11
1.77,0.97,11
1.77,0.87,11
1.76,0.92,11
1.76,1.0,11
1.77,0.89,11
1.76,0.89,11
1.76,0.99,11
1.77,0.93,11
1.76,0.86,11
1.74,0.96,11
1.75,0.97,11
1.76,0.86,11
1.74,0.92,11
1.75,0.98,11
1.77,0.88,11
1.76,0.87,11
1.76,0.97,11
1.77,0.91,11
1.76,0.85,11
1.75,0.95,11
1.76,0.95,11
1.76,0.85,11
1.75,0.9,11
1.76,0.97,11
1.77,0.87,11
1.76,0.87,11
1.76,0.97,12
1.77,0.92,12
1.76,0.85,12
1.75,0.96,12
1.76,0.95,12
1.76,0.85,12
1.75,0.91,12
1.75,0.97,12
1.76,0.87,12
1.75,0.87,12
1.75,0.96,12
1.76,0.91,12
1.74,0.84,12
1.73,0.94,12
1.74,0.94,12
1.75,0.84,12
1.73,0.9,12
1.74,0.97,12
1.76,0.86,12
1.75,0.86,12
1.75,0.96,12
1.75,0.9,12
1.74,0.84,12
1.73,0.94,12
1.73,0.94,12
1.73,0.84,12
1.72,0.9,12
1.72,0.96,12
1.73,0.86,12
1.72,0.86,12
1.72,0.96,12
1.74,0.91,12
1.73,0.84,12
1.72,0.94,12
1.73,0.94,12
1.73,0.84,12
1.71,0.89,12
1.72,0.95,12
1.73,0.85,12
1.72,0.85,12
1.72,0.95,12
1.74,0.9,12
1.73,0.84,12
1.71,0.95,12
1.72,0.95,12
1.72,0.85,12
1.7,0.91,12
1.71,0.97,12
1.72,0.86,12
1.71,0.87,12
1.7,0.96,12
1.71,0.91,12
1.7,0.84,12
1.69,0.95,12
1.7,0.95,12
1.7,0.85,12
1.69,0.9,12
1.7,0.97,12
1.71,0.86,12
1.69,0.86,12
1.69,0.96,12
1.71,0.9,12
1.69,0.84,12
1.68,0.94,12
1.69,0.94,12
1.69,0.84,12
1.68,0.9,12
1.69,0.96,12
1.7,0.85,12
1.69,0.85,12
1.7,0.95,12
1.71,0.89,12
1.7,0.82,12
1.69,0.93,12
1.7,0.93,12
1.7,0.83,12
1.68,0.88,12
1.69,0.95,12
1.7,0.84,12
1.68,0.84,12
1.68,0.94,12
1.7,0.89,12
1.69,0.83,12
1.68,0.93,12
1.7,0.93,12
1.7,0.83,12
1.68,0.88,12
1.69,0.95,12
1.7,0.85,12
1.69,0.85,12
1.69,0.95,12
1.7,0.89,12
1.68,0.83,12
1.67,0.94,12
1.68,0.94,12
1.68,0.84,12
1.66,0.9,12
1.68,0.96,12
1.68,0.85,12
1.67,0.85,12
1.67,0.95,12
1.69,0.89,12
1.68,0.83,12
1.68,0.93,12
1.69,0.94,12
1.69,0.84,12
1.67,0.89,12
1.68,0.96,12
1.69,0.85,12
1.67,0.85,12
1.67,0.95,12
1.68,0.89,12
1.67,0.83,12
1.65,0.94,12
1.67,0.93,12
1.67,0.83,12
1.65,0.89,12
1.66,0.96,12
1.67,0.85,12
1.66,0.86,12
1.66,0.95,12
1.67,0.9,12
1.66,0.83,12
1.65,0.94,12
1.66,0.94,12
1.66,0.84,12
1.64,0.9,12
1.66,0.96,12
1.67,0.86,12
1.66,0.87,12
1.66,0.96,12
1.67,0.91,12
1.66,0.85,12
1.64,0.95,12
1.65,0.94,12
1.65,0.84,12
1.63,0.9,12
1.64,0.95,12
1.65,0.85,12
1.64,0.85,12
1.64,0.95,12
1.66,0.89,12
1.65,0.82,12
1.65,0.93,12
1.66,0.92,12
1.67,0.82,12
1.66,0.88,12
1.67,0.94,12
1.68,0.84,12
1.67,0.84,12
1.67,0.94,12
1.68,0.88,12
1.67,0.82,12
1.66,0.92,12
1.67,0.92,12
1.67,0.82,12
1.66,0.88,12
1.66,0.94,12
1.67,0.83,12
1.65,0.83,12
1.64,0.93,12
1.66,0.87,12
1.65,0.81,12
1.64,0.92,12
1.66,0.92,12
1.66,0.81,12
1.65,0.87,12
1.66,0.93,12
1.67,0.82,12
1.66,0.83,12
1.66,0.92,12
1.68,0.86,12
1.66,0.8,12
1.66,0.91,12
1.67,0.9,12
1.67,0.8,12
1.66,0.87,12
1.67,0.92,12
1.67,0.81,12
1.66,0.82,12
1.66,0.91,12
1.67,0.84,12
1.66,0.78,12
1.64,0.89,12
1.66,0.88,12
1.66,0.79,12
1.64,0.85,12
1.66,0.91,12
1.67,0.8,12
1.66,0.81,12
1.65,0.9,12
1.66,0.84,12
1.65,0.78,12
1.64,0.89,12
1.65,0.89,12
1.65,0.78,12
1.63,0.85,12
1.64,0.9,12
1.65,0.8,12
1.63,0.8,12
1.63,0.9,12
1.65,0.84,12
1.63,0.78,12
1.62,0.89,12
1.63,0.88,12
1.63,0.78,12
1.62,0.83,12
1.63,0.89,12
1.64,0.78,12
1.62,0.78,12
1.62,0.88,12
1.62,0.82,12
1.61,0.76,12
1.61,0.87,12
1.62,0.87,12
1.62,0.77,12
1.61,0.83,12
1.62,0.89,12
1.63,0.78,12
1.61,0.79,12
1.61,0.89,12
1.64,0.83,12
1.63,0.77,12
1.61,0.88,12
1.63,0.87,12
1.63,0.77,12
1.62,0.83,12
1.63,0.89,12
1.64,0.78,12
1.63,0.79,12
1.63,0.88,12
1.64,0.82,12
1.62,0.76,12
1.61,0.86,12
1.61,0.85,12
1.62,0.76,12
1.6,0.82,12
1.61,0.88,12
1.63,0.78,12
1.62,0.78,12
1.62,0.88,12
1.63,0.82,12
1.62,0.76,12
1.61,0.87,12
1.62,0.86,12
1.62,0.76,12
1.61,0.83,12
1.62,0.89,12
1.63,0.78,12
1.62,0.79,12
1.62,0.88,12
1.63,0.82,12
1.62,0.77,12
1.61,0.87,12
1.62,0.87,12
1.62,0.77,12
1.6,0.83,12
1.62,0.89,12
1.63,0.78,12
1.62,0.79,12
1.61,0.89,12
1.63,0.83,12
1.62,0.77,12
1.61,0.88,12
1.62,0.87,12
1.62,0.77,12
1.6,0.83,12
1.61,0.89,12
1.62,0.79,12
1.61,0.79,12
1.61,0.89,12
1.63,0.83,12
1.61,0.77,12
1.6,0.88,12
1.61,0.88,12
1.61,0.78,12
1.6,0.84,12
1.61,0.89,12
1.62,0.79,12
1.61,0.8,12
1.6,0.9,12
1.61,0.84,12
1.6,0.78,12
1.59,0.89,12
1.6,0.88,12
1.6,0.78,12
1.58,0.85,12
1.59,0.9,12
1.6,0.8,12
1.59,0.8,12
1.59,0.9,12
1.6,0.83,12
1.58,0.77,12
1.58,0.88,12
1.59,0.87,12
1.59,0.77,12
1.58,0.84,12
1.6,0.89,12
1.61,0.79,12
1.6,0.79,12
1.6,0.89,12
1.62,0.82,12
1.6,0.77,12
1.59,0.87,12
1.61,0.86,12
1.61,0.76,12
1.59,0.83,12
1.6,0.88,12
1.61,0.77,12
1.59,0.78,12
1.59,0.88,12
1.6,0.82,12
1.58,0.77,12
1.57,0.88,12
1.58,0.87,12
1.59,0.77,12
1.57,0.84,12
1.59,0.9,12
1.59,0.79,12
1.58,0.8,12
1.58,0.9,12
1.59,0.84,12
1.58,0.78,12
1.56,0.88,12
1.58,0.87,12
1.57,0.78,12
1.56,0.84,12
1.57,0.9,12
1.58,0.8,12
1.57,0.81,12
1.57,0.9,12
1.58,0.83,12
1.57,0.78,12
1.56,0.89,12
1.57,0.88,12
1.57,0.78,12
1.56,0.84,12
1.57,0.9,12
1.58,0.79,12
1.57,0.8,12
1.57,0.89,12
1.59,0.82,12
1.57,0.77,12
1.56,0.88,12
1.57,0.87,12
1.57,0.77,12
1.56,0.84,12
1.57,0.89,12
1.58,0.78,12
1.57,0.79,12
1.57,0.89,12
1.58,0.82,12
1.57,0.77,12
1.56,0.87,12
1.57,0.86,12
1.58,0.76,12
1.56,0.83,12
1.57,0.88,12
1.58,0.78,12
1.57,0.79,12
1.57,0.88,12
1.58,0.81,12
1.57,0.76,12
1.56,0.86,12
1.57,0.85,12
1.57,0.76,12
1.55,0.82,12
1.56,0.88,12
1.57,0.77,12
1.56,0.78,12
1.56,0.87,12
1.58,0.81,12
1.56,0.75,12
1.55,0.85,12
1.56,0.85,12
1.57,0.75,12
1.55,0.82,12
1.57,0.87,12
1.57,0.77,12
1.56,0.77,12
1.56,0.87,12
1.58,0.8,12
1.57,0.75,12
1.56,0.86,12
1.58,0.84,12
1.58,0.74,12
1.57,0.81,12
1.58,0.86,12
1.59,0.75,12
1.58,0.76,12
1.57,0.86,12
1.59,0.79,12
1.57,0.74,12
1.56,0.84,12
1.57,0.83,12
1.57,0.74,12
1.55,0.8,12
1.56,0.86,12
1.57,0.75,12
1.56,0.76,12
1.57,0.86,12
1.58,0.79,12
1.58,0.74,12
1.57,0.84,12
1.58,0.83,12
1.58,0.74,12
1.56,0.81,12
1.57,0.86,12
1.58,0.76,12
1.56,0.77,12
1.56,0.86,12
1.58,0.8,12
1.57,0.74,12
1.55,0.85,12
1.57,0.84,12
1.57,0.74,12
1.55,0.8,12
1.56,0.86,12
1.57,0.76,12
1.56,0.77,12
1.56,0.86,12
1.58,0.79,12
1.56,0.74,12
1.55,0.84,12
1.57,0.83,12
1.57,0.74,12
1.55,0.8,12
1.56,0.86,12
1.57,0.75,12
1.56,0.76,12
1.56,0.85,12
1.58,0.79,12
1.57,0.73,12
1.55,0.84,12
1.57,0.83,12
1.57,0.73,12
1.55,0.8,12
1.56,0.85,12
1.58,0.75,12
1.57,0.76,12
1.57,0.85,12
1.59,0.79,12
1.58,0.74,12
1.56,0.84,12
1.58,0.83,12
1.58,0.73,12
1.56,0.8,12
1.57,0.85,12
1.58,0.74,12
1.57,0.75,12
1.56,0.85,12
1.58,0.79,12
1.56,0.73,12
1.55,0.84,12
1.57,0.83,12
1.56,0.74,12
1.55,0.8,12
1.56,0.85,12
1.58,0.75,12
1.56,0.76,12
1.56,0.86,12
1.58,0.79,12
1.56,0.74,12
1.55,0.84,12
1.57,0.83,12
1.57,0.74,12
1.55,0.8,12
1.57,0.86,12
1.57,0.75,12
1.55,0.76,12
1.55,0.86,12
1.56,0.79,12
1.55,0.74,12
1.54,0.85,12
1.56,0.83,12
1.56,0.74,12
1.54,0.8,12
1.55,0.85,12
1.56,0.75,12
1.56,0.76,12
1.56,0.86,12
1.58,0.79,12
1.56,0.74,12
1.55,0.84,12
1.56,0.83,12
1.56,0.74,12
1.55,0.81,12
1.56,0.87,12
1.58,0.77,12
1.57,0.78,12
1.57,0.88,12
1.58,0.81,12
1.57,0.76,12
1.56,0.87,12
1.57,0.86,12
1.57,0.76,12
1.56,0.83,12
1.57,0.88,12
1.58,0.77,12
1.56,0.78,12
1.56,0.88,12
1.58,0.81,12
1.57,0.76,12
1.56,0.87,12
1.57,0.85,12
1.58,0.75,12
1.56,0.82,12
1.57,0.87,12
1.58,0.76,12
1.57,0.77,12
1.57,0.87,12
1.58,0.8,12
1.57,0.75,12
1.56,0.85,12
1.57,0.84,12
1.56,0.75,12
1.55,0.81,12
1.56,0.86,12
1.57,0.76,12
1.55,0.77,12
1.55,0.86,12
1.57,0.79,12
1.55,0.74,12
1.54,0.84,12
1.55,0.83,12
1.55,0.74,12
1.54,0.8,12
1.55,0.85,12
1.56,0.75,12
1.54,0.75,12
1.55,0.85,12
1.56,0.78,12
1.55,0.73,12
1.55,0.84,12
1.56,0.83,12
1.56,0.73,12
1.55,0.79,12
1.56,0.84,12
1.57,0.73,12
1.55,0.74,12
1.55,0.84,12
1.57,0.78,12
1.56,0.72,12
1.55,0.83,12
1.56,0.81,12
1.56,0.72,12
1.54,0.78,12
1.56,0.83,12
1.57,0.73,12
1.55,0.74,12
1.55,0.83,12
1.56,0.77,12
1.55,0.72,12
1.54,0.83,12
1.55,0.81,12
1.55,0.72,12
1.54,0.78,12
1.55,0.83,12
1.56,0.72,12
1.55,0.73,12
1.55,0.82,12
1.56,0.75,12
1.55,0.7,12
1.54,0.8,12
1.55,0.79,12
1.55,0.7,12
1.54,0.78,12
1.56,0.85,12
1.57,0.76,12
1.58,0.8,12
1.58,0.92,12
1.6,0.89,12
1.6,0.87,12
1.6,1.0,12
1.62,1.02,12
1.63,0.95,12
1.62,1.04,12
1.64,1.1,12
1.65,1.01,12
1.64,1.03,12
1.64,1.13,12
1.65,1.07,12
1.64,1.02,12
1.63,1.12,12
1.65,1.11,12
1.65,1.02,12
1.63,1.08,12
1.64,1.13,12
1.65,1.03,12
1.64,1.04,12
1.64,1.13,12
1.65,1.06,12
1.63,1.01,12
1.62,1.11,12
1.63,1.1,12
1.63,0.99,12
1.61,1.06,12
1.62,1.11,12
1.62,1.0,12
1.61,1.01,12
1.6,1.1,12
1.62,1.03,12
1.61,0.98,12
1.61,1.08,12
1.62,1.07,12
1.62,0.97,12
1.6,1.04,12
1.62,1.09,12
1.63,0.98,12
1.61,0.99,12
1.6,1.08,12
1.61,1.02,12
1.58,0.97,12
1.57,1.07,12
1.58,1.06,12
1.58,0.97,12
1.56,1.03,12
1.58,1.08,12
1.59,0.97,12
1.58,0.98,12
1.58,1.07,12
1.6,1.01,12
1.59,0.95,12
1.57,1.06,12
1.58,1.05,12
1.59,0.96,12
1.57,1.02,12
1.58,1.07,12
1.6,0.96,12
1.58,0.97,12
1.58,1.06,12
1.59,1.0,12
1.58,0.95,12
1.57,1.05,12
1.58,1.04,12
1.58,0.94,12
1.56,1.01,12
1.57,1.06,12
1.57,0.95,12
1.56,0.97,12
1.55,1.06,12
1.56,1.0,12
1.55,0.94,12
1.54,1.05,12
1.55,1.04,12
1.56,0.94,12
1.54,1.01,12
1.56,1.06,12
1.57,0.96,12
1.56,0.97,12
1.56,1.06,12
1.58,0.99,12
1.56,0.94,12
1.56,1.05,12
1.57,1.05,12
1.57,0.95,12
1.56,1.02,12
1.57,1.07,12
1.58,0.96,12
1.56,0.97,12
1.56,1.07,12
1.57,1.0,12
1.55,0.95,12
1.54,1.06,12
1.56,1.05,12
1.56,0.95,12
1.55,1.02,12
1.56,1.07,12
1.57,0.96,12
1.55,0.97,12
1.55,1.07,12
1.57,1.01,12
1.56,0.96,12
1.56,1.07,12
1.59,1.06,12
1.6,0.96,12
1.58,1.03,12
1.6,1.08,12
1.61,0.97,12
1.6,0.98,12
1.59,1.07,12
1.61,1.01,12
1.6,0.96,12
1.58,1.06,12
1.59,1.05,12
1.59,0.96,12
1.57,1.02,12
1.58,1.07,12
1.59,0.97,12
1.58,0.98,12
1.58,1.08,12
1.59,1.01,12
1.58,0.96,12
1.57,1.07,12
1.58,1.06,12
1.58,0.96,12
1.57,1.02,12
1.58,1.08,12
1.59,0.97,12
1.58,0.98,12
1.58,1.07,12
1.59,1.0,12
1.58,0.95,12
1.57,1.06,12
1.58,1.05,12
1.59,0.95,12
1.57,1.02,12
1.59,1.07,12
1.6,0.97,12
1.59,0.98,12
1.58,1.08,12
1.59,1.02,12
1.58,0.97,12
1.56,1.08,12
1.57,1.07,12
1.57,0.97,12
1.56,1.04,12
1.57,1.1,12
1.58,1.0,12
1.57,1.01,12
1.57,1.11,12
1.59,1.05,12
1.57,1.0,12
1.56,1.1,12
1.57,1.09,12
1.58,0.99,12
1.56,1.06,12
1.57,1.11,12
1.58,1.01,12
1.57,1.03,12
1.57,1.13,12
1.59,1.06,12
1.58,1.01,12
1.56,1.12,12
1.58,1.11,12
1.57,1.02,12
1.55,1.08,12
1.56,1.14,12
1.57,1.04,12
1.56,1.05,12
1.56,1.15,12
1.57,1.08,12
1.56,1.01,12
1.55,1.1,12
1.56,1.07,12
1.55,0.95,12
1.53,0.98,12
1.53,1.0,12
1.53,0.86,12
1.5,0.84,12
1.5,0.91,12
1.5,0.82,12
1.48,0.74,12
1.46,0.83,12
1.47,0.81,12
1.47,0.7,12
1.46,0.76,12
1.48,0.82,12
1.49,0.72,12
1.47,0.73,12
1.48,0.84,12
1.49,0.78,12
1.48,0.74,12
1.47,0.85,12
1.49,0.86,12
1.49,0.77,12
1.47,0.84,12
1.49,0.9,12
1.5,0.8,12
1.49,0.82,12
1.5,0.91,12
1.51,0.85,12
1.5,0.8,12
1.49,0.91,12
1.5,0.9,12
1.5,0.81,12
1.48,0.88,12
1.5,0.94,12
1.51,0.84,12
1.5,0.85,12
1.5,0.95,12
1.51,0.89,12
1.5,0.84,12
1.49,0.95,12
1.5,0.94,12
1.49,0.85,12
1.48,0.91,12
1.49,0.98,12
1.51,0.88,12
1.49,0.89,12
1.49,0.99,12
1.51,0.93,12
1.49,0.87,12
1.48,0.98,12
1.5,0.97,12
1.51,0.88,12
1.49,0.94,12
1.5,1.0,12
1.51,0.89,12
1.49,0.88,12
1.49,0.97,12
1.5,0.9,12
1.49,0.84,12
1.48,0.94,12
1.49,0.94,12
1.49,0.84,12
1.48,0.9,12
1.5,0.96,12
1.51,0.86,12
1.5,0.87,12
1.5,0.97,12
1.52,0.91,12
1.51,0.86,12
1.5,0.97,12
1.51,0.96,12
1.52,0.87,12
1.5,0.93,12
1.51,0.99,12
1.52,0.89,12
1.51,0.89,12
1.51,0.99,12
1.52,0.93,12
1.51,0.88,12
1.5,0.98,12
1.51,0.98,12
1.51,0.88,12
1.5,0.95,12
1.51,1.01,12
1.53,0.9,12
1.52,0.91,12
1.52,1.01,12
1.53,0.95,12
1.52,0.89,12
1.51,1.0,12
1.52,0.99,12
1.52,0.9,12
1.5,0.96,12
1.52,1.02,12
1.53,0.92,12
1.51,0.93,12
1.51,1.02,12
1.53,0.96,12
1.51,0.9,12
1.5,1.01,12
1.52,1.01,12
1.51,0.91,12
1.5,0.97,12
1.52,1.04,12
1.53,0.93,12
1.52,0.93,12
1.52,1.03,12
1.54,0.96,12
1.53,0.9,12
1.52,1.0,12
1.53,1.0,12
1.53,0.9,12
1.51,0.96,12
1.52,1.02,12
1.53,0.92,12
1.52,0.92,12
1.52,1.02,12
1.54,0.95,12
1.53,0.89,12
1.52,1.0,12
1.53,0.99,12
1.54,0.89,12
1.52,0.95,12
1.54,1.01,12
1.56,0.91,12
1.55,0.91,12
1.54,1.0,12
1.56,0.94,12
1.55,0.88,12
1.53,0.99,12
1.55,0.98,12
1.55,0.88,12
1.54,0.94,12
1.55,1.0,12
1.56,0.89,12
1.55,0.89,12
1.55,0.99,12
1.56,0.93,12
1.55,0.87,12
1.54,0.98,12
1.56,0.97,12
1.56,0.87,12
1.55,0.93,12
1.56,0.99,12
1.57,0.88,12
1.56,0.89,12
1.55,0.99,12
1.57,0.93,12
1.55,0.87,12
1.54,0.97,12
1.55,0.97,12
1.56,0.87,12
1.54,0.93,12
1.55,0.99,12
1.57,0.89,12
1.55,0.89,12
1.55,0.99,12
1.56,0.93,12
1.55,0.86,12
1.54,0.96,12
1.55,0.96,12
1.56,0.86,12
1.54,0.92,12
1.55,0.97,12
1.57,0.86,12
1.55,0.87,12
1.55,0.97,12
1.56,0.9,12
1.55,0.85,12
1.54,0.95,12
1.55,0.94,12
1.56,0.84,12
1.54,0.9,12
1.55,0.95,12
1.57,0.84,12
1.56,0.84,12
1.56,0.94,12
1.58,0.88,12
1.57,0.82,12
1.56,0.93,12
1.57,0.92,12
1.57,0.82,12
1.56,0.88,12
1.57,0.93,12
1.58,0.83,12
1.57,0.83,12
1.57,0.93,12
1.59,0.87,12
1.58,0.8,12
1.57,0.91,12
1.58,0.9,12
1.58,0.8,12
1.57,0.86,12
1.58,0.92,12
1.59,0.81,12
1.57,0.81,12
1.57,0.9,12
1.58,0.84,12
1.57,0.77,12
1.56,0.88,12
1.57,0.87,12
1.58,0.77,12
1.56,0.83,12
1.57,0.89,12
1.59,0.78,12
1.57,0.79,12
1.57,0.88,12
1.58,0.82,12
1.56,0.76,12
1.55,0.86,12
1.56,0.86,12
1.56,0.76,12
1.54,0.82,12
1.55,0.88,12
1.56,0.78,12
1.56,0.78,12
1.55,0.88,12
1.56,0.82,12
1.55,0.75,12
1.54,0.85,12
1.55,0.85,12
1.56,0.75,12
1.55,0.81,12
1.56,0.87,12
1.57,0.76,12
1.56,0.76,12
1.55,0.86,12
1.57,0.8,12
1.56,0.74,12
1.55,0.84,12
1.57,0.83,12
1.57,0.73,12
1.56,0.79,12
1.57,0.85,12
1.58,0.74,12
1.57,0.74,12
1.56,0.84,12
1.57,0.77,12
1.56,0.71,12
1.55,0.81,12
1.56,0.81,12
1.56,0.71,12
1.55,0.77,12
1.56,0.83,12
1.58,0.73,12
1.56,0.73,12
1.56,0.82,12
1.58,0.76,12
1.57,0.7,12
1.56,0.8,12
1.57,0.8,12
1.58,0.7,12
1.57,0.75,12
1.58,0.81,12
1.59,0.7,12
1.57,0.7,12
1.57,0.8,12
1.58,0.75,12
1.58,0.69,12
1.56,0.79,12
1.58,0.79,12
1.58,0.69,12
1.57,0.74,12
1.58,0.8,12
1.59,0.69,12
1.58,0.69,12
1.58,0.79,12
1.59,0.73,12
1.58,0.66,12
1.57,0.77,12
1.58,0.76,12
1.58,0.66,12
1.57,0.72,12
1.58,0.77,12
1.59,0.67,12
1.58,0.66,12
1.58,0.76,12
1.6,0.7,12
1.59,0.64,12
1.58,0.74,12
1.59,0.74,12
1.59,0.64,12
1.58,0.7,12
1.58,0.76,12
1.6,0.66,12
1.59,0.66,12
1.58,0.75,12
1.6,0.69,12
1.59,0.63,12
1.57,0.73,12
1.58,0.73,12
1.59,0.64,12
1.57,0.69,12
1.58,0.75,12
1.6,0.64,12
1.59,0.64,12
1.59,0.74,12
1.6,0.68,12
1.59,0.62,12
1.58,0.72,12
1.59,0.72,12
1.59,0.62,12
1.58,0.67,12
1.59,0.73,12
1.6,0.63,12
1.59,0.63,12
1.59,0.72,12
1.6,0.66,12
1.59,0.6,12
1.58,0.7,12
1.59,0.7,12
1.6,0.6,12
1.58,0.65,12
1.59,0.71,12
1.61,0.61,12
1.59,0.61,12
1.59,0.7,12
1.6,0.64,12
1.59,0.57,12
1.58,0.67,12
1.59,0.67,12
1.59,0.57,12
1.57,0.63,12
1.58,0.69,12
1.6,0.59,12
1.58,0.58,12
1.58,0.68,12
1.59,0.62,12
1.57,0.56,12
1.56,0.66,12
1.57,0.66,12
1.57,0.55,12
1.56,0.6,12
1.57,0.66,12
1.58,0.56,12
1.57,0.56,12
1.56,0.66,12
1.58,0.61,12
1.57,0.54,12
1.56,0.64,12
1.58,0.64,12
1.58,0.53,12
1.57,0.59,12
1.57,0.65,12
1.59,0.54,12
1.58,0.54,12
1.57,0.64,12
1.59,0.58,12
1.58,0.52,12
1.56,0.62,12
1.57,0.62,12
1.57,0.52,12
1.56,0.57,12
1.57,0.63,12
1.58,0.53,12
1.58,0.52,12
1.57,0.62,12
1.59,0.56,12
1.58,0.49,12
1.57,0.59,12
1.58,0.59,12
1.58,0.49,12
1.57,0.54,12
1.58,0.6,12
1.59,0.5,12
1.58,0.49,12
1.58,0.59,12
1.59,0.54,12
1.58,0.47,12
1.57,0.57,12
1.58,0.57,12
1.58,0.47,12
1.57,0.52,12
1.58,0.58,12
1.59,0.48,12
1.58,0.47,12
1.58,0.57,12
1.59,0.51,12
1.58,0.44,12
1.56,0.55,12
1.57,0.55,12
1.58,0.44,12
1.56,0.49,12
1.57,0.56,12
1.58,0.46,12
1.57,0.46,12
1.57,0.56,12
1.58,0.51,12
1.57,0.44,12
1.56,0.54,12
1.57,0.54,12
1.57,0.44,12
1.56,0.49,12
1.57,0.55,12
1.59,0.45,12
1.58,0.44,12
1.57,0.54,12
1.59,0.49,12
1.58,0.42,12
1.56,0.51,12
1.57,0.51,12
1.57,0.41,12
1.55,0.46,12
1.55,0.53,12
1.57,0.43,12
1.56,0.43,12
1.56,0.52,12
1.58,0.47,12
1.57,0.4,12
1.56,0.5,12
1.57,0.5,12
1.57,0.4,12
1.56,0.45,12
1.56,0.52,12
1.57,0.42,12
1.56,0.41,12
1.56,0.51,12
1.57,0.45,12
1.56,0.39,12
1.54,0.48,12
1.55,0.49,12
1.55,0.39,12
1.53,0.44,12
1.53,0.5,12
1.54,0.4,12
1.53,0.4,12
1.53,0.5,12
1.54,0.45,12
1.53,0.39,12
1.52,0.48,12
1.53,0.49,12
1.54,0.39,12
1.52,0.44,12
1.53,0.5,12
1.55,0.4,12
1.53,0.4,12
1.53,0.49,12
1.54,0.44,12
1.54,0.38,12
1.53,0.47,12
1.54,0.48,12
1.54,0.38,12
1.53,0.42,12
1.53,0.49,12
1.55,0.38,12
1.53,0.38,12
1.53,0.48,12
1.54,0.43,12
1.53,0.36,12
1.52,0.45,12
1.52,0.46,12
1.52,0.36,12
1.5,0.41,12
1.51,0.48,12
1.52,0.39,12
1.51,0.38,12
1.5,0.48,12
1.52,0.43,12
1.51,0.37,12
1.49,0.46,12
1.5,0.47,12
1.5,0.37,12
1.49,0.42,12
1.49,0.49,12
1.51,0.39,12
1.5,0.39,12
1.5,0.48,12
1.51,0.43,12
1.51,0.37,12
1.49,0.47,12
1.5,0.47,12
1.5,0.38,12
1.48,0.42,12
1.49,0.49,12
1.5,0.4,12
1.49,0.39,12
1.49,0.49,12
1.5,0.44,12
1.49,0.38,12
1.47,0.47,12
1.48,0.48,12
1.49,0.38,12
1.48,0.43,12
1.48,0.49,12
1.5,0.4,12
1.49,0.39,12
1.49,0.49,12
1.5,0.44,12
1.49,0.37,12
1.48,0.47,12
1.48,0.48,12
1.49,0.38,12
1.47,0.43,12
1.48,0.5,12
1.49,0.41,12
1.48,0.4,12
1.48,0.5,12
1.48,0.45,12
1.47,0.38,12
1.44,0.47,12
1.43,0.48,12
1.4,0.38,12
1.36,0.42,12
1.33,0.48,12
1.32,0.38,12
1.28,0.36,12
1.24,0.44,12
1.22,0.38,12
1.19,0.3,12
1.14,0.38,12
1.13,0.38,12
1.1,0.28,12
1.07,0.32,12
1.04,0.39,12
1.04,0.29,12
1.0,0.28,12
0.98,0.37,12
0.98,0.32,12
0.97,0.25,12
0.94,0.35,12
0.94,0.36,12
0.94,0.27,12
0.92,0.32,12
0.92,0.39,12
0.94,0.3,12
0.93,0.29,12
0.92,0.38,12
0.94,0.33,12
0.93,0.26,12
0.91,0.35,12
0.91,0.36,12
0.91,0.27,12
0.89,0.32,12
0.89,0.4,12
0.9,0.31,12
0.89,0.3,12
0.89,0.4,12
0.91,0.36,12
0.91,0.29,12
0.89,0.38,12
0.91,0.4,12
0.91,0.3,12
0.89,0.35,12
0.89,0.42,12
0.91,0.33,12
0.9,0.32,12
0.89,0.42,12
0.91,0.38,12
0.92,0.31,12
0.9,0.4,12
0.91,0.41,12
0.92,0.32,12
0.91,0.36,12
0.91,0.43,12
0.92,0.34,12
0.92,0.33,12
0.91,0.44,12
0.93,0.4,12
0.93,0.32,12
0.91,0.42,12
0.92,0.44,12
0.93,0.34,12
0.92,0.38,12
0.92,0.46,12
0.94,0.37,12
0.93,0.35,12
0.93,0.45,12
0.94,0.41,12
0.94,0.34,12
0.92,0.44,12
0.93,0.45,12
0.93,0.36,12
0.92,0.4,12
0.93,0.48,12
0.95,0.39,12
0.94,0.38,12
0.93,0.49,12
0.95,0.45,12
0.95,0.38,12
0.93,0.47,12
0.95,0.49,12
0.96,0.39,12
0.95,0.44,12
0.95,0.51,12
0.97,0.42,12
0.96,0.41,12
0.96,0.51,12
0.97,0.47,12
0.97,0.4,12
0.95,0.49,12
0.96,0.5,12
0.97,0.41,12
0.97,0.46,12
1.0,0.54,12
1.05,0.46,12
1.08,0.46,12
1.12,0.58,12
1.17,0.55,12
1.21,0.49,12
1.23,0.6,12
1.28,0.63,12
1.32,0.54,12
1.35,0.59,12
1.38,0.68,12
1.44,0.6,12
1.46,0.6,12
1.49,0.71,12
1.53,0.67,12
1.55,0.6,12
1.56,0.7,12
1.58,0.72,12
1.6,0.62,12
1.6,0.67,12
1.61,0.74,12
1.63,0.65,12
1.63,0.64,12
1.62,0.74,12
1.63,0.7,12
1.63,0.62,12
1.62,0.71,12
1.63,0.72,12
1.63,0.62,12
1.62,0.66,12
1.62,0.73,12
1.63,0.64,12
1.62,0.62,12
1.62,0.72,12
1.63,0.68,12
1.64,0.6,12
1.62,0.7,12
1.62,0.71,12
1.62,0.61,12
1.61,0.65,12
1.61,0.73,12
1.63,0.64,12
1.62,0.61,12
1.62,0.71,12
1.63,0.67,12
1.63,0.59,12
1.62,0.68,12
1.62,0.69,12
1.63,0.59,12
1.62,0.63,12
1.62,0.71,12
1.64,0.62,12
1.63,0.6,12
1.62,0.7,12
1.64,0.67,12
1.64,0.59,12
1.63,0.68,12
1.65,0.7,12
1.67,0.6,12
1.67,0.64,12
1.67,0.71,12
1.69,0.62,12
1.69,0.6,12
1.68,0.71,12
1.69,0.67,12
1.69,0.59,12
1.67,0.68,12
1.68,0.7,12
1.68,0.6,12
1.67,0.64,12
1.66,0.72,12
1.68,0.63,12
1.67,0.61,12
1.66,0.71,12
1.67,0.67,12
1.67,0.59,12
1.65,0.68,12
1.66,0.71,12
1.67,0.6,12
1.66,0.64,12
1.66,0.72,12
1.68,0.63,12
1.67,0.6,12
1.67,0.71,12
1.69,0.66,12
1.69,0.58,12
1.66,0.67,12
1.67,0.69,12
1.67,0.58,12
1.65,0.62,12
1.65,0.7,12
1.66,0.62,12
1.66,0.6,12
1.66,0.7,12
1.66,0.66,12
1.67,0.58,12
1.65,0.67,12
1.66,0.69,12
1.66,0.58,12
1.65,0.62,12
1.65,0.71,12
1.67,0.62,12
1.65,0.6,12
1.65,0.7,12
1.66,0.67,12
1.66,0.59,12
1.64,0.68,12
1.65,0.7,12
1.65,0.6,12
1.64,0.64,12
1.64,0.73,12
1.65,0.64,12
1.65,0.62,12
1.64,0.72,12
1.65,0.68,12
1.65,0.6,12
1.64,0.69,12
1.65,0.72,12
1.66,0.61,12
1.65,0.65,12
1.64,0.73,12
1.66,0.64,12
1.65,0.61,12
1.64,0.72,12
1.65,0.68,12
1.65,0.6,12
1.63,0.69,12
1.64,0.71,12
1.65,0.6,12
1.64,0.64,12
1.63,0.72,12
1.65,0.64,12
1.64,0.61,12
1.63,0.71,12
1.64,0.68,12
1.64,0.59,12
1.62,0.68,12
1.63,0.7,12
1.63,0.6,12
1.62,0.63,12
1.62,0.71,12
1.63,0.63,12
1.62,0.6,12
1.61,0.7,12
1.62,0.67,12
1.62,0.58,12
1.6,0.67,12
1.61,0.7,12
1.62,0.59,12
1.61,0.63,12
1.6,0.71,12
1.62,0.63,12
1.61,0.6,12
1.6,0.71,12
1.61,0.67,12
1.61,0.59,12
1.59,0.68,12
1.6,0.71,12
1.6,0.61,12
1.6,0.64,12
1.6,0.72,12
1.62,0.64,12
1.61,0.61,12
1.61,0.71,12
1.62,0.68,12
1.62,0.6,12
1.6,0.68,12
1.61,0.71,12
1.62,0.6,12
1.61,0.64,12
1.6,0.72,12
1.62,0.63,12
1.61,0.61,12
1.6,0.71,12
1.6,0.67,12
1.61,0.59,12
1.59,0.68,12
1.6,0.7,12
1.61,0.6,12
1.6,0.63,12
1.6,0.71,12
1.62,0.63,12
1.61,0.6,12
1.61,0.71,12
1.62,0.67,12
1.62,0.59,12
1.6,0.68,12
1.61,0.7,12
1.62,0.6,12
1.6,0.63,12
1.6,0.72,12
1.62,0.63,12
1.61,0.6,12
1.6,0.71,12
1.61,0.67,12
1.61,0.59,12
1.59,0.67,12
1.6,0.7,12
1.6,0.6,12
1.59,0.63,12
1.58,0.71,12
1.6,0.63,12
1.59,0.6,12
1.58,0.71,12
1.59,0.68,12
1.59,0.59,12
1.57,0.68,12
1.57,0.7,12
1.57,0.6,12
1.56,0.63,12
1.55,0.71,12
1.57,0.63,12
1.57,0.6,12
1.56,0.71,12
1.57,0.67,12
1.58,0.59,12
1.55,0.67,12
1.56,0.7,12
1.57,0.59,12
1.56,0.62,12
1.56,0.71,12
1.58,0.63,12
1.57,0.59,12
1.56,0.69,12
1.58,0.66,12
1.58,0.58,12
1.56,0.66,12
1.57,0.7,12
1.58,0.6,12
1.57,0.63,12
1.56,0.71,12
1.58,0.63,12
1.57,0.6,12
1.57,0.71,12
1.58,0.68,12
1.58,0.6,12
1.56,0.68,12
1.57,0.71,12
1.57,0.61,12
1.56,0.64,12
1.56,0.72,12
1.58,0.64,12
1.57,0.6,12
1.56,0.7,12
1.57,0.67,12
1.56,0.59,12
1.54,0.67,12
1.55,0.71,12
1.55,0.61,12
1.54,0.64,12
1.54,0.72,12
1.56,0.64,12
1.55,0.61,12
1.55,0.71,12
1.56,0.68,12
1.55,0.6,12
1.53,0.67,12
1.54,0.7,12
1.54,0.6,12
1.53,0.63,12
1.53,0.72,12
1.55,0.64,12
1.53,0.6,12
1.52,0.71,13
1.54,0.68,13
1.54,0.59,13
1.52,0.68,13
1.54,0.71,13
1.55,0.61,13
1.54,0.63,13
1.54,0.72,13
1.56,0.64,13
1.55,0.6,13
1.54,0.71,13
1.56,0.68,13
1.56,0.59,13
1.53,0.67,13
1.54,0.71,13
1.54,0.61,13
1.52,0.63,13
1.52,0.72,13
1.54,0.65,13
1.53,0.61,13
1.53,0.71,13
1.54,0.69,13
1.55,0.6,13
1.52,0.68,13
1.53,0.72,13
1.54,0.62,13
1.53,0.64,13
1.52,0.73,13
1.54,0.66,13
1.53,0.62,13
1.53,0.73,13
1.54,0.7,13
1.54,0.61,13
1.52,0.69,13
1.53,0.73,13
1.53,0.63,13
1.52,0.65,13
1.52,0.75,13
1.54,0.67,13
1.52,0.63,13
1.51,0.74,13
1.52,0.72,13
1.52,0.63,13
1.5,0.71,13
1.51,0.75,13
1.52,0.64,13
1.51,0.66,13
1.5,0.75,13
1.52,0.68,13
1.51,0.64,13
1.5,0.75,13
1.52,0.73,13
1.52,0.65,13
1.5,0.72,13
1.51,0.76,13
1.51,0.66,13
1.5,0.68,13
1.49,0.77,13
1.51,0.69,13
1.49,0.66,13
1.49,0.76,13
1.5,0.73,13
1.5,0.64,13
1.48,0.72,13
1.49,0.76,13
1.49,0.65,13
1.48,0.67,13
1.47,0.76,13
1.49,0.69,13
1.47,0.64,13
1.46,0.75,13
1.47,0.73,13
1.48,0.65,13
1.46,0.72,13
1.47,0.76,13
1.48,0.65,13
1.47,0.67,13
1.46,0.77,13
1.48,0.69,13
1.47,0.65,13
1.46,0.76,13
1.48,0.74,13
1.48,0.64,13
1.46,0.72,13
1.47,0.76,13
1.48,0.65,13
1.46,0.68,13
1.45,0.77,13
1.47,0.7,13
1.45,0.66,13
1.44,0.76,13
1.46,0.74,13
1.46,0.66,13
1.44,0.73,13
1.46,0.78,13
1.46,0.67,13
1.45,0.69,13
1.44,0.78,13
1.46,0.71,13
1.44,0.67,13
1.44,0.78,13
1.45,0.76,13
1.45,0.67,13
1.43,0.74,13
1.44,0.78,13
1.45,0.68,13
1.43,0.7,13
1.43,0.79,13
1.46,0.72,13
1.44,0.68,13
1.44,0.78,13
1.45,0.76,13
1.45,0.67,13
1.43,0.74,13
1.45,0.78,13
1.46,0.68,13
1.45,0.69,13
1.44,0.78,13
1.46,0.71,13
1.45,0.67,13
1.44,0.78,13
1.45,0.76,13
1.45,0.67,13
1.43,0.74,13
1.45,0.78,13
1.45,0.67,13
1.44,0.69,13
1.43,0.78,13
1.45,0.71,13
1.43,0.67,13
1.43,0.77,13
1.44,0.75,13
1.44,0.66,13
1.42,0.73,13
1.44,0.78,13
1.45,0.68,13
1.43,0.7,13
1.43,0.79,13
1.45,0.72,13
1.43,0.67,13
1.42,0.78,13
1.43,0.76,13
1.44,0.66,13
1.42,0.73,13
1.43,0.78,13
1.44,0.68,13
1.43,0.69,13
1.42,0.79,13
1.44,0.72,13
1.43,0.67,13
1.42,0.77,13
1.44,0.76,13
1.44,0.68,13
1.43,0.75,13
1.44,0.8,13
1.45,0.7,13
1.44,0.71,13
1.43,0.8,13
1.45,0.74,13
1.44,0.69,13
1.43,0.8,13
1.44,0.78,13
1.45,0.69,13
1.43,0.76,13
1.44,0.8,13
1.45,0.7,13
1.44,0.72,13
1.44,0.81,13
1.46,0.75,13
1.45,0.7,13
1.43,0.81,13
1.45,0.79,13
1.44,0.69,13
1.42,0.76,13
1.43,0.81,13
1.45,0.71,13
1.43,0.72,13
1.43,0.82,13
1.45,0.77,13
1.44,0.72,13
1.43,0.82,13
1.44,0.81,13
1.44,0.72,13
1.43,0.78,13
1.44,0.83,13
1.45,0.73,13
1.44,0.75,13
1.44,0.84,13
1.46,0.78,13
1.44,0.73,13
1.44,0.83,13
1.45,0.82,13
1.46,0.73,13
1.44,0.79,13
1.45,0.84,13
1.46,0.73,13
1.44,0.75,13
1.44,0.85,13
1.45,0.79,13
1.43,0.74,13
1.42,0.84,13
1.44,0.83,13
1.44,0.74,13
1.42,0.8,13
1.43,0.85,13
1.44,0.75,13
1.43,0.76,13
1.42,0.85,13
1.44,0.79,13
1.42,0.74,13
1.41,0.84,13
1.43,0.83,13
1.43,0.74,13
1.42,0.8,13
1.43,0.86,13
1.44,0.75,13
1.42,0.76,13
1.42,0.86,13
1.44,0.79,13
1.42,0.74,13
1.41,0.84,13
1.43,0.84,13
1.43,0.74,13
1.42,0.8,13
1.43,0.86,13
1.44,0.75,13
1.43,0.76,13
1.42,0.85,13
1.44,0.79,13
1.43,0.74,13
1.42,0.84,13
1.44,0.84,13
1.44,0.74,13
1.43,0.8,13
1.44,0.86,13
1.46,0.75,13
1.45,0.76,13
1.45,0.85,13
1.46,0.79,13
1.45,0.73,13
1.43,0.84,13
1.44,0.84,13
1.45,0.74,13
1.43,0.81,13
1.44,0.86,13
1.46,0.76,13
1.44,0.76,13
1.44,0.86,13
1.46,0.81,13
1.44,0.75,13
1.43,0.85,13
1.44,0.85,13
1.45,0.76,13
1.43,0.81,13
1.45,0.87,13
1.46,0.77,13
1.45,0.77,13
1.45,0.87,13
1.47,0.81,13
1.45,0.75,13
1.44,0.85,13
1.45,0.85,13
1.45,0.75,13
1.43,0.81,13
1.44,0.86,13
1.45,0.76,13
1.44,0.76,13
1.43,0.86,13
1.45,0.8,13
1.44,0.75,13
1.43,0.85,13
1.44,0.84,13
1.44,0.75,13
1.43,0.81,13
1.44,0.86,13
1.45,0.76,13
1.44,0.76,13
1.44,0.85,13
1.45,0.79,13
1.44,0.73,13
1.43,0.83,13
1.44,0.82,13
1.45,0.73,13
1.43,0.78,13
1.44,0.84,13
1.46,0.74,13
1.44,0.74,13
1.44,0.84,13
1.45,0.78,13
1.44,0.72,13
1.43,0.82,13
1.44,0.82,13
1.44,0.72,13
1.43,0.78,13
1.44,0.84,13
1.45,0.74,13
1.44,0.74,13
1.44,0.84,13
1.46,0.78,13
1.45,0.72,13
1.43,0.83,13
1.44,0.83,13
1.45,0.73,13
1.43,0.79,13
1.44,0.86,13
1.45,0.76,13
1.45,0.75,13
1.44,0.85,13
1.47,0.8,13
1.46,0.73,13
1.44,0.84,13
1.45,0.84,13
1.46,0.74,13
1.45,0.79,13
1.46,0.86,13
1.48,0.76,13
1.47,0.76,13
1.46,0.86,13
1.48,0.8,13
1.47,0.74,13
1.45,0.84,13
1.46,0.84,13
1.46,0.74,13
1.45,0.8,13
1.46,0.86,13
1.47,0.76,13
1.46,0.76,13
1.46,0.86,13
1.47,0.8,13
1.46,0.74,13
1.45,0.84,13
1.46,0.84,13
1.46,0.74,13
1.44,0.8,13
1.45,0.86,13
1.47,0.77,13
1.47,0.76,13
1.47,0.86,13
1.48,0.81,13
1.48,0.74,13
1.46,0.84,13
1.47,0.85,13
1.48,0.75,13
1.46,0.8,13
1.47,0.87,13
1.48,0.77,13
1.47,0.77,13
1.47,0.87,13
1.48,0.81,13
1.47,0.75,13
1.46,0.85,13
1.47,0.85,13
1.47,0.75,13
1.46,0.8,13
1.46,0.86,13
1.48,0.76,13
1.47,0.76,13
1.46,0.86,13
1.48,0.81,13
1.48,0.74,13
1.47,0.84,13
1.48,0.84,13
1.48,0.74,13
1.47,0.79,13
1.48,0.87,13
1.49,0.77,13
1.48,0.76,13
1.48,0.86,13
1.49,0.81,13
1.48,0.74,13
1.47,0.84,13
1.48,0.85,13
1.49,0.75,13
1.47,0.8,13
1.47,0.87,13
1.49,0.77,13
1.48,0.76,13
1.47,0.86,13
1.49,0.81,13
1.49,0.73,13
1.48,0.83,13
1.5,0.83,13
1.5,0.73,13
1.49,0.78,13
1.49,0.85,13
1.51,0.75,13
1.5,0.74,13
1.5,0.84,13
1.51,0.79,13
1.51,0.72,13
1.49,0.82,13
1.5,0.83,13
1.5,0.73,13
1.49,0.78,13
1.49,0.85,13
1.51,0.75,13
1.5,0.74,13
1.5,0.85,13
1.52,0.8,13
1.52,0.73,13
1.5,0.83,13
1.51,0.84,13
1.52,0.73,13
1.5,0.78,13
1.51,0.85,13
1.53,0.75,13
1.51,0.73,13
1.51,0.83,13
1.52,0.78,13
1.52,0.7,13
1.5,0.8,13
1.51,0.82,13
1.5,0.72,13
1.49,0.77,13
1.49,0.84,13
1.5,0.74,13
1.5,0.72,13
1.49,0.82,13
1.51,0.77,13
1.51,0.7,13
1.49,0.8,13
1.5,0.82,13
1.51,0.72,13
1.49,0.77,13
1.5,0.84,13
1.51,0.75,13
1.5,0.73,13
1.5,0.83,13
1.51,0.79,13
1.51,0.72,13
1.49,0.82,13
1.5,0.84,13
1.51,0.75,13
1.49,0.8,13
1.49,0.88,13
1.51,0.78,13
1.5,0.77,13
1.5,0.87,13
1.51,0.83,13
1.51,0.75,13
1.5,0.85,13
1.51,0.87,13
1.51,0.77,13
1.5,0.81,13
1.5,0.89,13
1.52,0.8,13
1.51,0.79,13
1.51,0.89,13
1.52,0.85,13
1.52,0.78,13
1.5,0.88,13
1.5,0.89,13
1.51,0.79,13
1.49,0.83,13
1.49,0.91,13
1.5,0.82,13
1.49,0.8,13
1.49,0.91,13
1.5,0.87,13
1.51,0.79,13
1.49,0.89,13
1.5,0.9,13
1.5,0.8,13
1.49,0.84,13
1.49,0.92,13
1.51,0.83,13
1.5,0.82,13
1.5,0.92,13
1.51,0.89,13
1.51,0.81,13
1.49,0.91,13
1.5,0.93,13
1.5,0.83,13
1.49,0.87,13
1.49,0.95,13
1.51,0.86,13
1.5,0.84,13
1.49,0.94,13
1.51,0.9,13
1.51,0.83,13
1.49,0.92,13
1.51,0.94,13
1.51,0.84,13
1.5,0.89,13
1.5,0.97,13
1.51,0.88,13
1.5,0.86,13
1.5,0.96,13
1.51,0.93,13
1.5,0.85,13
1.48,0.94,13
1.49,0.96,13
1.5,0.86,13
1.49,0.9,13
1.49,0.98,13
1.51,0.9,13
1.5,0.88,13
1.5,0.99,13
1.51,0.95,13
1.51,0.87,13
1.49,0.96,13
1.51,0.98,13
1.51,0.87,13
1.5,0.92,13
1.5,1.0,13
1.52,0.92,13
1.51,0.9,13
1.5,1.0,13
1.51,0.97,13
1.51,0.89,13
1.49,0.98,13
1.5,1.0,13
1.52,0.9,13
1.5,0.94,13
1.51,1.02,13
1.53,0.93,13
1.52,0.91,13
1.51,1.02,13
1.52,0.99,13
1.52,0.91,13
1.51,1.01,13
1.52,1.03,13
1.53,0.93,13
1.52,0.98,13
1.51,1.06,13
1.53,0.98,13
1.52,0.96,13
1.51,1.07,13
1.52,1.04,13
1.53,0.96,13
1.51,1.05,13
1.53,1.07,13
1.53,0.97,13
1.52,1.02,13
1.52,1.1,13
1.53,1.02,13
1.52,1.0,13
1.52,1.11,13
1.53,1.08,13
1.53,1.0,13
1.51,1.09,13
1.53,1.11,13
1.54,1.01,13
1.53,1.05,13
1.52,1.14,13
1.54,1.06,13
1.53,1.04,13
1.52,1.15,13
1.53,1.12,13
1.53,1.04,13
1.52,1.13,13
1.53,1.16,13
1.53,1.06,13
1.52,1.1,13
1.52,1.18,13
1.54,1.1,13
1.53,1.07,13
1.53,1.18,13
1.55,1.15,13
1.55,1.06,13
1.53,1.16,13
1.54,1.18,13
1.54,1.08,13
1.53,1.12,13
1.53,1.2,13
1.55,1.12,13
1.54,1.1,13
1.52,1.21,13
1.53,1.17,13
1.54,1.09,13
1.51,1.19,13
1.53,1.21,13
1.54,1.11,13
1.53,1.14,13
1.53,1.23,13
1.55,1.14,13
1.54,1.12,13
1.53,1.23,13
1.55,1.2,13
1.55,1.11,13
1.52,1.2,13
1.53,1.23,13
1.54,1.12,13
1.52,1.16,13
1.52,1.24,13
1.54,1.16,13
1.53,1.13,13
1.52,1.24,13
1.54,1.2,13
1.55,1.12,13
1.53,1.2,13
1.54,1.23,13
1.54,1.12,13
1.53,1.16,13
1.53,1.24,13
1.55,1.16,13
1.54,1.13,13
1.53,1.24,13
1.54,1.21,13
1.55,1.12,13
1.52,1.21,13
1.54,1.24,13
1.54,1.14,13
1.53,1.17,13
1.52,1.25,13
1.55,1.17,13
1.54,1.14,13
1.53,1.25,13
1.54,1.22,13
1.55,1.14,13
1.53,1.22,13
1.54,1.25,13
1.54,1.15,13
1.53,1.18,13
1.52,1.26,13
1.55,1.18,13
1.54,1.14,13
1.53,1.25,13
1.54,1.22,13
1.55,1.14,13
1.53,1.22,13
1.53,1.25,13
1.54,1.15,13
1.52,1.17,13
1.52,1.26,13
1.55,1.18,13
1.54,1.15,13
1.54,1.25,13
1.55,1.23,13
1.56,1.14,13
1.54,1.22,13
1.55,1.26,13
1.56,1.15,13
1.55,1.18,13
1.54,1.27,13
1.56,1.19,13
1.55,1.16,13
1.54,1.26,13
1.56,1.23,13
1.56,1.15,13
1.54,1.23,13
1.55,1.26,13
1.56,1.16,13
1.55,1.19,13
1.55,1.28,13
1.58,1.2,13
1.56,1.16,13
1.56,1.27,13
1.57,1.24,13
1.57,1.15,13
1.55,1.23,13
1.56,1.27,13
1.57,1.16,13
1.56,1.19,13
1.55,1.27,13
1.57,1.19,13
1.56,1.15,13
1.55,1.25,13
1.56,1.22,13
1.57,1.13,13
1.55,1.21,13
1.56,1.25,13
1.57,1.14,13
1.55,1.17,13
1.55,1.25,13
1.57,1.17,13
1.57,1.14,13
1.56,1.24,13
1.57,1.21,13
1.56,1.12,13
1.52,1.19,13
1.51,1.22,13
1.49,1.1,13
1.45,1.11,13
1.42,1.19,13
1.41,1.1,13
1.36,1.05,13
1.32,1.14,13
1.3,1.11,13
1.28,1.0,13
1.22,1.07,13
1.21,1.1,13
1.19,0.98,13
1.16,1.0,13
1.13,1.08,13
1.13,1.0,13
1.09,0.95,13
1.07,1.05,13
1.06,1.02,13
1.05,0.93,13
1.02,1.01,13
1.01,1.05,13
1.01,0.94,13
0.99,0.97,13
0.97,1.06,13
0.99,0.98,13
0.97,0.94,13
0.96,1.05,13
0.97,1.03,13
0.97,0.94,13
0.94,1.02,13
0.95,1.06,13
0.96,0.95,13
0.94,0.97,13
0.94,1.06,13
0.96,0.99,13
0.95,0.95,13
0.94,1.05,13
0.95,1.03,13
0.95,0.94,13
0.92,1.01,13
0.92,1.05,13
0.93,0.94,13
0.91,0.96,13
0.91,1.05,13
0.93,0.97,13
0.92,0.93,13
0.91,1.03,13
0.93,1.01,13
0.94,0.92,13
0.91,1.0,13
0.93,1.04,13
0.94,0.93,13
0.93,0.95,13
0.93,1.04,13
0.96,0.97,13
0.95,0.93,13
0.94,1.04,13
0.96,1.02,13
0.96,0.93,13
0.94,1.0,13
0.95,1.04,13
0.96,0.93,13
0.96,0.95,13
0.96,1.03,13
0.98,0.95,13
0.98,0.9,13
0.97,1.0,13
0.98,0.98,13
0.99,0.89,13
0.96,0.96,13
0.98,1.01,13
1.0,0.9,13
0.99,0.92,13
0.98,1.01,13
1.01,0.94,13
0.99,0.88,13
0.98,0.98,13
0.99,0.96,13
1.0,0.87,13
0.98,0.93,13
0.99,0.98,13
1.01,0.87,13
1.0,0.89,13
1.0,0.98,13
1.02,0.91,13
1.01,0.86,13
1.01,0.96,13
1.02,0.94,13
1.03,0.84,13
0.99,0.91,13
1.0,0.95,13
1.01,0.85,13
1.02,0.87,13
1.03,0.97,13
1.09,0.9,13
1.12,0.87,13
1.15,0.99,13
1.19,0.98,13
1.24,0.9,13
1.26,0.98,13
1.32,1.03,13
1.37,0.93,13
1.4,0.95,13
1.44,1.05,13
1.5,0.99,13
1.52,0.95,13
1.54,1.06,13
1.59,1.05,13
1.62,0.97,13
1.63,1.04,13
1.67,1.09,13
1.7,0.99,13
1.71,1.01,13
1.71,1.1,13
1.74,1.04,13
1.74,0.99,13
1.73,1.09,13
1.75,1.07,13
1.75,0.98,13
1.74,1.04,13
1.75,1.08,13
1.77,0.98,13
1.76,0.99,13
1.76,1.08,13
1.78,1.01,13
1.77,0.96,13
1.75,1.07,13
1.76,1.05,13
1.76,0.96,13
1.74,1.02,13
1.75,1.07,13
1.76,0.96,13
1.75,0.97,13
1.75,1.05,13
1.76,0.98,13
1.75,0.92,13
1.74,1.03,13
1.75,1.01,13
1.75,0.92,13
1.73,0.98,13
1.75,1.03,13
1.76,0.93,13
1.75,0.93,13
1.75,1.02,13
1.77,0.95,13
1.76,0.89,13
1.75,0.99,13
1.76,0.98,13
1.76,0.88,13
1.74,0.95,13
1.75,1.0,13
1.76,0.9,13
1.75,0.9,13
1.75,0.99,13
1.77,0.93,13
1.76,0.87,13
1.75,0.97,13
1.76,0.95,13
1.76,0.86,13
1.74,0.92,13
1.75,0.97,13
1.77,0.86,13
1.76,0.87,13
1.75,0.96,13
1.77,0.89,13
1.75,0.83,13
1.74,0.93,13
1.75,0.92,13
1.75,0.82,13
1.73,0.89,13
1.74,0.94,13
1.75,0.84,13
1.73,0.84,13
1.73,0.94,13
1.75,0.87,13
1.74,0.82,13
1.72,0.92,13
1.74,0.91,13
1.74,0.81,13
1.72,0.87,13
1.73,0.93,13
1.75,0.82,13
1.73,0.83,13
1.73,0.92,13
1.74,0.86,13
1.72,0.8,13
1.71,0.9,13
1.72,0.89,13
1.72,0.8,13
1.7,0.86,13
1.71,0.91,13
1.72,0.81,13
1.71,0.82,13
1.71,0.91,13
1.72,0.85,13
1.71,0.79,13
1.7,0.9,13
1.71,0.89,13
1.71,0.8,13
1.69,0.86,13
1.7,0.91,13
1.71,0.81,13
1.7,0.82,13
1.7,0.91,13
1.72,0.84,13
1.7,0.79,13
1.69,0.89,13
1.71,0.88,13
1.71,0.78,13
1.69,0.84,13
1.7,0.89,13
1.71,0.79,13
1.69,0.79,13
1.69,0.89,13
1.71,0.83,13
1.69,0.77,13
1.68,0.87,13
1.69,0.86,13
1.7,0.76,13
1.68,0.82,13
1.69,0.87,13
1.7,0.77,13
1.69,0.77,13
1.69,0.86,13
1.7,0.8,13
1.69,0.74,13
1.67,0.84,13
1.68,0.83,13
1.69,0.73,13
1.67,0.79,13
1.69,0.84,13
1.7,0.74,13
1.68,0.75,13
1.68,0.84,13
1.7,0.78,13
1.68,0.72,13
1.67,0.82,13
1.68,0.81,13
1.68,0.71,13
1.66,0.77,13
1.67,0.83,13
1.68,0.72,13
1.67,0.73,13
1.67,0.82,13
1.68,0.77,13
1.67,0.7,13
1.65,0.81,13
1.67,0.8,13
1.66,0.7,13
1.64,0.75,13
1.65,0.81,13
1.67,0.71,13
1.66,0.71,13
1.65,0.8,13
1.67,0.75,13
1.66,0.69,13
1.65,0.79,13
1.66,0.78,13
1.66,0.68,13
1.65,0.73,13
1.66,0.79,13
1.67,0.68,13
1.66,0.68,13
1.66,0.77,13
1.67,0.71,13
1.67,0.65,13
1.65,0.75,13
1.66,0.75,13
1.66,0.65,13
1.65,0.7,13
1.66,0.76,13
1.68,0.66,13
1.67,0.66,13
1.67,0.75,13
1.68,0.69,13
1.67,0.63,13
1.65,0.73,13
1.66,0.73,13
1.66,0.63,13
1.64,0.69,13
1.65,0.75,13
1.66,0.64,13
1.65,0.64,13
1.64,0.73,13
1.65,0.67,13
1.64,0.61,13
1.63,0.71,13
1.64,0.71,13
1.64,0.62,13
1.62,0.67,13
1.63,0.73,13
1.65,0.63,13
1.64,0.63,13
1.63,0.72,13
1.65,0.66,13
1.64,0.6,13
1.62,0.7,13
1.63,0.7,13
1.63,0.6,13
1.61,0.66,13
1.62,0.72,13
1.64,0.62,13
1.63,0.62,13
1.62,0.71,13
1.64,0.66,13
1.63,0.59,13
1.61,0.69,13
1.62,0.69,13
1.63,0.59,13
1.61,0.65,13
1.63,0.71,13
1.64,0.6,13
1.63,0.59,13
1.63,0.69,13
1.64,0.63,13
1.63,0.56,13
1.61,0.66,13
1.62,0.66,13
1.62,0.56,13
1.6,0.62,13
1.61,0.68,13
1.62,0.58,13
1.6,0.57,13
1.6,0.67,13
1.61,0.61,13
1.6,0.54,13
1.59,0.64,13
1.6,0.64,13
1.61,0.54,13
1.59,0.59,13
1.6,0.66,13
1.62,0.56,13
1.6,0.55,13
1.6,0.65,13
1.62,0.59,13
1.61,0.53,13
1.59,0.63,13
1.6,0.63,13
1.6,0.53,13
1.58,0.58,13
1.59,0.64,13
1.6,0.54,13
1.59,0.54,13
1.58,0.64,13
1.6,0.58,13
1.6,0.52,13
1.59,0.62,13
1.6,0.62,13
1.6,0.52,13
1.58,0.58,13
1.59,0.64,13
1.6,0.54,14
1.59,0.53,14
1.59,0.63,14
1.6,0.58,14
1.6,0.51,14
1.58,0.61,14
1.59,0.61,14
1.59,0.51,14
1.57,0.57,14
1.58,0.63,14
1.59,0.54,14
1.58,0.54,14
1.58,0.63,14
1.59,0.58,14
1.59,0.51,14
1.57,0.61,14
1.58,0.61,14
1.58,0.51,14
1.57,0.57,14
1.57,0.63,14
1.58,0.53,14
1.57,0.53,14
1.57,0.62,14
1.58,0.57,14
1.57,0.5,14
1.56,0.6,14
1.57,0.6,14
1.57,0.5,14
1.56,0.55,14
1.56,0.62,14
1.58,0.52,14
1.57,0.51,14
1.57,0.61,14
1.59,0.56,14
1.58,0.49,14
1.56,0.59,14
1.57,0.59,14
1.58,0.49,14
1.56,0.55,14
1.56,0.62,14
1.58,0.52,14
1.56,0.51,14
1.56,0.61,14
1.57,0.56,14
1.56,0.48,14
1.54,0.58,14
1.55,0.59,14
1.56,0.48,14
1.54,0.53,14
1.55,0.6,14
1.57,0.51,14
1.55,0.5,14
1.55,0.6,14
1.56,0.55,14
1.55,0.48,14
1.53,0.58,14
1.55,0.58,14
1.55,0.48,14
1.54,0.53,14
1.54,0.6,14
1.56,0.51,14
1.55,0.5,14
1.55,0.6,14
1.56,0.55,14
1.56,0.48,14
1.54,0.58,14
1.56,0.58,14
1.56,0.48,14
1.54,0.53,14
1.55,0.6,14
1.56,0.5,14
1.55,0.49,14
1.54,0.59,14
1.55,0.54,14
1.55,0.47,14
1.53,0.56,14
1.54,0.57,14
1.55,0.47,14
1.53,0.51,14
1.54,0.58,14
1.55,0.48,14
1.55,0.47,14
1.54,0.57,14
1.56,0.53,14
1.56,0.46,14
1.54,0.55,14
1.54,0.56,14
1.54,0.46,14
1.53,0.51,14
1.54,0.58,14
1.55,0.48,14
1.55,0.47,14
1.55,0.57,14
1.56,0.52,14
1.55,0.45,14
1.53,0.55,14
1.53,0.56,14
1.54,0.45,14
1.52,0.5,14
1.53,0.57,14
1.55,0.47,14
1.54,0.46,14
1.54,0.56,14
1.55,0.52,14
1.54,0.44,14
1.52,0.54,14
1.53,0.55,14
1.54,0.45,14
1.53,0.5,14
1.53,0.57,14
1.55,0.48,14
1.54,0.46,14
1.54,0.57,14
1.55,0.52,14
1.55,0.44,14
1.53,0.54,14
1.54,0.55,14
1.54,0.45,14
1.53,0.5,14
1.53,0.57,14
1.55,0.48,14
1.53,0.46,14
1.52,0.56,14
1.53,0.51,14
1.53,0.44,14
1.51,0.53,14
1.52,0.55,14
1.53,0.46,14
1.51,0.51,14
1.51,0.58,14
1.52,0.49,14
1.51,0.47,14
1.51,0.57,14
1.52,0.53,14
1.52,0.45,14
1.5,0.55,14
1.51,0.57,14
1.52,0.47,14
1.5,0.51,14
1.5,0.58,14
1.52,0.49,14
1.51,0.47,14
1.5,0.58,14
1.51,0.53,14
1.52,0.46,14
1.5,0.56,14
1.51,0.57,14
1.52,0.47,14
1.5,0.51,14
1.5,0.58,14
1.51,0.48,14
1.5,0.46,14
1.49,0.56,14
1.5,0.52,14
1.5,0.45,14
1.48,0.54,14
1.49,0.56,14
1.5,0.46,14
1.49,0.51,14
1.49,0.58,14
1.51,0.48,14
1.5,0.47,14
1.5,0.57,14
1.51,0.53,14
1.51,0.46,14
1.49,0.55,14
1.5,0.57,14
1.5,0.46,14
1.49,0.5,14
1.49,0.58,14
1.5,0.49,14
1.49,0.48,14
1.49,0.58,14
1.5,0.54,14
1.51,0.46,14
1.49,0.55,14
1.5,0.57,14
1.5,0.47,14
1.49,0.51,14
1.48,0.58,14
1.5,0.49,14
1.49,0.48,14
1.48,0.58,14
1.5,0.55,14
1.5,0.47,14
1.48,0.56,14
1.49,0.58,14
1.49,0.48,14
1.48,0.52,14
1.48,0.59,14
1.49,0.5,14
1.49,0.48,14
1.48,0.59,14
1.5,0.55,14
1.5,0.47,14
1.49,0.57,14
1.5,0.58,14
1.5,0.48,14
1.48,0.52,14
1.48,0.6,14
1.5,0.51,14
1.49,0.49,14
1.49,0.6,14
1.5,0.56,14
1.51,0.49,14
1.5,0.58,14
1.51,0.6,14
1.51,0.5,14
1.5,0.54,14
1.49,0.62,14
1.5,0.53,14
1.49,0.52,14
1.48,0.62,14
1.49,0.58,14
1.49,0.5,14
1.48,0.59,14
1.48,0.61,14
1.49,0.51,14
1.47,0.55,14
1.47,0.63,14
1.49,0.54,14
1.48,0.52,14
1.47,0.62,14
1.48,0.59,14
1.49,0.51,14
1.47,0.6,14
1.48,0.62,14
1.49,0.52,14
1.48,0.56,14
1.48,0.64,14
1.49,0.55,14
1.48,0.53,14
1.48,0.63,14
1.49,0.59,14
1.49,0.51,14
1.47,0.6,14
1.49,0.62,14
1.49,0.51,14
1.48,0.55,14
1.49,0.63,14
1.5,0.54,14
1.49,0.52,14
1.49,0.62,14
1.5,0.58,14
1.5,0.5,14
1.49,0.6,14
1.49,0.62,14
1.5,0.52,14
1.48,0.56,14
1.48,0.63,14
1.49,0.54,14
1.48,0.52,14
1.47,0.63,14
1.48,0.59,14
1.47,0.51,14
1.45,0.61,14
1.46,0.62,14
1.46,0.52,14
1.45,0.56,14
1.45,0.64,14
1.47,0.55,14
1.46,0.53,14
1.47,0.63,14
1.48,0.59,14
1.48,0.52,14
1.46,0.61,14
1.47,0.63,14
1.47,0.52,14
1.46,0.56,14
1.46,0.64,14
1.48,0.55,14
1.47,0.53,14
1.47,0.62,14
1.48,0.58,14
1.48,0.5,14
1.46,0.59,14
1.47,0.62,14
1.47,0.52,14
1.46,0.56,14
1.46,0.64,14
1.48,0.55,14
1.47,0.53,14
1.47,0.63,14
1.48,0.59,14
1.48,0.52,14
1.46,0.61,14
1.48,0.63,14
1.48,0.53,14
1.47,0.56,14
1.47,0.64,14
1.48,0.55,14
1.47,0.53,14
1.46,0.64,14
1.47,0.61,14
1.47,0.53,14
1.44,0.62,14
1.45,0.64,14
1.46,0.53,14
1.45,0.57,14
1.44,0.65,14
1.46,0.57,14
1.45,0.54,14
1.45,0.65,14
1.46,0.62,14
1.46,0.54,14
1.45,0.63,14
1.46,0.65,14
1.47,0.55,14
1.46,0.58,14
1.46,0.67,14
1.48,0.58,14
1.47,0.56,14
1.46,0.66,14
1.48,0.63,14
1.5,0.55,14
1.49,0.63,14
1.51,0.65,14
1.53,0.55,14
1.52,0.58,14
1.53,0.65,14
1.55,0.57,14
1.54,0.55,14
1.54,0.65,14
1.55,0.62,14
1.56,0.54,14
1.54,0.62,14
1.54,0.64,14
1.54,0.54,14
1.53,0.58,14
1.53,0.67,14
1.54,0.58,14
1.53,0.56,14
1.53,0.66,14
1.55,0.62,14
1.55,0.54,14
1.53,0.63,14
1.54,0.65,14
1.54,0.55,14
1.52,0.59,14
1.52,0.67,14
1.53,0.59,14
1.52,0.57,14
1.52,0.68,14
1.52,0.65,14
1.53,0.57,14
1.51,0.66,14
1.52,0.69,14
1.53,0.59,14
1.52,0.63,14
1.52,0.71,14
1.54,0.62,14
1.53,0.6,14
1.52,0.7,14
1.52,0.67,14
1.53,0.59,14
1.5,0.68,14
1.51,0.7,14
1.52,0.61,14
1.51,0.64,14
1.51,0.73,14
1.53,0.65,14
1.52,0.63,14
1.51,0.73,14
1.53,0.7,14
1.52,0.63,14
1.5,0.72,14
1.51,0.75,14
1.52,0.65,14
1.5,0.68,14
1.5,0.76,14
1.53,0.68,14
1.52,0.66,14
1.51,0.77,14
1.51,0.74,14
1.5,0.66,14
1.46,0.75,14
1.44,0.77,14
1.42,0.66,14
1.38,0.69,14
1.35,0.77,14
1.34,0.68,14
1.31,0.65,14
1.28,0.75,14
1.27,0.71,14
1.24,0.63,14
1.2,0.71,14
1.19,0.73,14
1.17,0.63,14
1.14,0.66,14
1.12,0.75,14
1.12,0.66,14
1.1,0.64,14
1.07,0.74,14
1.07,0.71,14
1.06,0.63,14
1.03,0.72,14
1.03,0.76,14
1.04,0.66,14
1.02,0.69,14
1.01,0.78,14
1.02,0.69,14
1.01,0.67,14
0.99,0.77,14
0.99,0.74,14
0.99,0.67,14
0.96,0.76,14
0.96,0.79,14
0.96,0.68,14
0.94,0.72,14
0.94,0.81,14
0.95,0.73,14
0.94,0.71,14
0.93,0.82,14
0.94,0.79,14
0.94,0.71,14
0.92,0.8,14
0.94,0.83,14
0.94,0.73,14
0.93,0.77,14
0.93,0.86,14
0.95,0.78,14
0.95,0.76,14
0.94,0.86,14
0.95,0.84,14
0.95,0.76,14
0.93,0.85,14
0.94,0.89,14
0.95,0.8,14
0.94,0.84,14
0.94,0.92,14
0.96,0.85,14
0.95,0.83,14
0.95,0.93,14
0.96,0.91,14
0.97,0.83,14
0.95,0.91,14
0.97,0.95,14
0.98,0.85,14
0.97,0.89,14
0.97,0.98,14
0.99,0.9,14
0.98,0.88,14
0.97,0.99,14
0.99,0.96,14
0.99,0.88,14
0.97,0.97,14
0.98,1.0,14
0.99,0.9,14
0.98,0.94,14
0.98,1.03,14
1.01,0.95,14
1.0,0.92,14
1.0,1.03,14
1.01,1.0,14
1.02,0.92,14
1.0,1.01,14
1.01,1.04,14
1.02,0.94,14
1.01,0.98,14
1.01,1.06,14
1.03,0.98,14
1.02,0.96,14
1.02,1.06,14
1.02,1.04,14
1.03,0.96,14
1.01,1.04,14
1.02,1.07,14
1.03,0.97,14
1.02,1.01,14
1.01,1.1,14
1.04,1.02,14
1.03,1.0,14
1.03,1.1,14
1.04,1.08,14
1.05,0.99,14
1.03,1.08,14
1.05,1.11,14
1.06,1.01,14
1.05,1.04,14
1.05,1.12,14
1.07,1.04,14
1.06,1.01,14
1.05,1.12,14
1.07,1.09,14
1.07,1.01,14
1.06,1.09,14
1.07,1.12,14
1.07,1.02,14
1.06,1.06,14
1.07,1.15,14
1.11,1.07,14
1.13,1.05,14
1.16,1.16,14
1.22,1.14,14
1.26,1.07,14
1.27,1.16,14
