horizontal,vertical,label
1.49,1.07,2
1.5,0.99,2
1.49,0.99,2
1.48,1.07,2
1.49,1.02,2
1.49,0.97,2
1.48,1.06,2
1.48,1.06,2
1.49,0.98,2
1.49,1.02,2
1.49,1.07,2
1.5,0.99,2
1.5,1.0,2
1.49,1.08,2
1.5,1.03,2
1.5,0.98,2
1.49,1.06,2
1.49,1.06,2
1.49,0.98,2
1.48,1.03,2
1.49,1.08,2
1.5,1.0,2
1.49,1.0,2
1.49,1.07,2
1.5,1.03,2
1.49,0.98,2
1.48,1.06,2
1.48,1.06,2
1.49,0.98,2
1.48,1.02,2
1.48,1.07,2
1.49,0.99,2
1.48,0.99,2
1.48,1.07,2
1.49,1.02,2
1.49,0.97,2
1.48,1.05,2
1.48,1.05,2
1.49,0.98,2
1.48,1.02,2
1.48,1.07,2
1.49,0.99,2
1.49,0.99,2
1.49,1.08,2
1.5,1.03,2
1.5,0.98,2
1.49,1.06,2
1.49,1.06,2
1.5,0.99,2
1.48,1.03,2
1.49,1.09,2
1.49,1.0,2
1.48,1.01,2
1.47,1.08,2
1.48,1.04,2
1.48,0.99,2
1.47,1.07,2
1.47,1.07,2
1.48,0.99,2
1.48,1.04,2
1.48,1.09,2
1.49,1.01,2
1.49,1.01,2
1.48,1.08,2
1.49,1.04,2
1.49,0.99,2
1.48,1.07,2
1.48,1.07,2
1.49,0.99,2
1.48,1.03,2
1.48,1.08,2
1.49,1.0,2
1.49,1.0,2
1.48,1.08,2
1.5,1.03,2
1.5,0.98,2
1.49,1.06,2
1.5,1.06,2
1.5,0.98,2
1.5,1.03,2
1.5,1.08,2
1.52,1.0,2
1.51,1.01,2
1.51,1.08,2
1.52,1.04,2
1.52,0.99,2
1.5,1.07,2
1.51,1.07,2
1.52,0.99,2
1.51,1.03,2
1.51,1.08,2
1.52,0.99,2
1.51,0.99,2
1.5,1.06,2
1.51,1.02,2
1.51,0.96,2
1.5,1.04,2
1.5,1.03,2
1.51,0.95,2
1.5,1.0,2
1.51,1.04,2
1.52,0.97,2
1.51,0.97,2
1.51,1.05,2
1.52,1.0,2
1.51,0.94,2
1.5,1.02,2
1.5,1.01,2
1.5,0.93,2
1.49,0.98,2
1.5,1.03,2
1.51,0.95,2
1.5,0.95,2
1.5,1.03,2
1.51,0.98,2
1.5,0.93,2
1.49,1.0,2
1.49,1.0,2
1.5,0.92,2
1.49,0.96,2
1.5,1.02,2
1.51,0.94,2
1.51,0.95,2
1.5,1.02,2
1.51,0.97,2
1.51,0.92,2
1.5,1.0,2
1.5,1.0,2
1.51,0.92,2
1.5,0.97,2
1.51,1.02,2
1.52,0.93,2
1.51,0.93,2
1.51,1.0,2
1.52,0.94,2
1.51,0.89,2
1.5,0.97,2
1.5,0.96,2
1.51,0.88,2
1.49,0.92,2
1.5,0.97,2
1.51,0.89,2
1.5,0.89,2
1.5,0.97,2
1.51,0.92,2
1.5,0.87,2
1.49,0.96,2
1.5,0.95,2
1.5,0.88,2
1.49,0.93,2
1.5,0.98,2
1.51,0.9,2
1.5,0.9,2
1.5,0.98,2
1.51,0.93,2
1.5,0.88,2
1.5,0.96,2
1.5,0.95,2
1.51,0.87,2
1.49,0.91,2
1.5,0.96,2
1.5,0.87,2
1.5,0.88,2
1.49,0.96,2
1.5,0.91,2
1.49,0.86,2
1.48,0.95,2
1.49,0.94,2
1.49,0.86,2
1.48,0.91,2
1.49,0.95,2
1.5,0.87,2
1.49,0.88,2
1.49,0.95,2
1.49,0.9,2
1.49,0.86,2
1.48,0.94,2
1.49,0.93,2
1.5,0.86,2
1.49,0.9,2
1.49,0.94,2
1.5,0.86,2
1.49,0.86,2
1.48,0.94,2
1.49,0.89,2
1.48,0.84,2
1.47,0.92,2
1.47,0.92,2
1.48,0.84,2
1.47,0.89,2
1.47,0.93,2
1.48,0.85,2
1.48,0.85,2
1.47,0.93,2
1.48,0.88,2
1.48,0.83,2
1.47,0.91,2
1.48,0.91,2
1.49,0.83,2
1.48,0.88,2
1.48,0.93,2
1.49,0.84,2
1.48,0.85,2
1.48,0.93,2
1.49,0.89,2
1.48,0.85,2
1.47,0.94,2
1.48,0.94,2
1.49,0.86,2
1.49,0.91,2
1.5,0.95,2
1.51,0.87,2
1.5,0.87,2
1.5,0.95,2
1.5,0.9,2
1.5,0.86,2
1.49,0.94,2
1.49,0.93,2
1.5,0.86,2
1.49,0.91,2
1.5,0.95,2
1.51,0.87,2
1.51,0.88,2
1.5,0.95,2
1.51,0.9,2
1.51,0.86,2
1.5,0.94,2
1.5,0.93,2
1.51,0.85,2
1.5,0.9,2
1.5,0.94,2
1.51,0.86,2
1.5,0.87,2
1.5,0.94,2
1.51,0.89,2
1.5,0.85,2
1.49,0.93,2
1.5,0.93,2
1.51,0.85,2
1.5,0.9,2
1.51,0.95,2
1.52,0.86,2
1.51,0.87,2
1.5,0.95,2
1.51,0.9,2
1.5,0.86,2
1.49,0.94,2
1.49,0.93,2
1.5,0.86,2
1.48,0.9,2
1.49,0.94,2
1.5,0.86,2
1.49,0.86,2
1.48,0.94,2
1.49,0.89,2
1.48,0.85,2
1.47,0.93,2
1.48,0.92,2
1.49,0.84,2
1.48,0.9,2
1.49,0.94,2
1.5,0.85,2
1.49,0.86,2
1.48,0.93,2
1.49,0.88,2
1.49,0.83,2
1.48,0.92,2
1.49,0.91,2
1.49,0.83,2
1.48,0.88,2
1.49,0.92,2
1.5,0.84,2
1.49,0.84,2
1.49,0.92,2
1.5,0.87,2
1.48,0.83,2
1.48,0.91,2
1.49,0.9,2
1.49,0.83,2
1.49,0.88,2
1.5,0.92,2
1.51,0.83,2
1.51,0.84,2
1.5,0.92,2
1.52,0.87,2
1.51,0.82,2
1.5,0.91,2
1.51,0.89,2
1.52,0.82,2
1.51,0.86,2
1.51,0.9,2
1.52,0.82,2
1.51,0.82,2
1.51,0.89,2
1.52,0.84,2
1.52,0.79,2
1.51,0.87,2
1.52,0.86,2
1.53,0.79,2
1.51,0.84,2
1.52,0.88,2
1.53,0.8,2
1.52,0.81,2
1.52,0.88,2
1.52,0.83,2
1.52,0.79,2
1.5,0.87,2
1.51,0.87,2
1.51,0.79,2
1.5,0.85,2
1.5,0.89,2
1.51,0.8,2
1.51,0.82,2
1.51,0.89,2
1.52,0.84,2
1.52,0.79,2
1.51,0.87,2
1.51,0.86,2
1.52,0.78,2
1.5,0.83,2
1.5,0.87,2
1.51,0.8,2
1.5,0.81,2
1.5,0.89,2
1.52,0.83,2
1.52,0.79,2
1.51,0.88,2
1.52,0.87,2
1.53,0.79,2
1.52,0.85,2
1.52,0.89,2
1.53,0.8,2
1.52,0.81,2
1.51,0.88,2
1.52,0.83,2
1.52,0.79,2
1.5,0.87,2
1.51,0.86,2
1.51,0.79,2
1.5,0.84,2
1.51,0.88,2
1.52,0.8,2
1.51,0.81,2
1.5,0.89,2
1.52,0.83,2
1.51,0.79,2
1.5,0.87,2
1.51,0.86,2
1.52,0.79,2
1.51,0.84,2
1.52,0.88,2
1.52,0.8,2
1.52,0.81,2
1.51,0.88,2
1.53,0.82,2
1.52,0.79,2
1.51,0.87,2
1.52,0.86,2
1.53,0.79,2
1.52,0.84,2
1.53,0.87,2
1.54,0.78,2
1.53,0.78,2
1.52,0.84,2
1.53,0.77,2
1.52,0.7,2
1.51,0.76,2
1.52,0.71,2
1.52,0.6,2
1.51,0.62,2
1.52,0.62,2
1.53,0.51,2
1.52,0.51,2
1.51,0.57,2
1.52,0.5,2
1.52,0.46,2
1.51,0.55,2
1.52,0.54,2
1.53,0.47,2
1.52,0.53,2
1.53,0.57,2
1.54,0.5,2
1.53,0.52,2
1.52,0.6,2
1.53,0.55,2
1.52,0.52,2
1.52,0.61,2
1.52,0.6,2
1.53,0.53,2
1.52,0.59,2
1.52,0.63,2
1.53,0.55,2
1.53,0.56,2
1.52,0.64,2
1.54,0.59,2
1.53,0.55,2
1.52,0.63,2
1.53,0.61,2
1.54,0.51,2
1.52,0.54,2
1.53,0.55,2
1.54,0.43,2
1.53,0.39,2
1.53,0.42,2
1.54,0.33,2
1.53,0.25,2
1.52,0.3,2
1.54,0.25,2
1.55,0.18,2
1.54,0.19,2
1.55,0.19,2
1.56,0.12,2
1.55,0.11,2
1.54,0.12,2
1.56,0.06,2
1.55,0.04,2
1.54,0.06,2
1.55,0.05,2
1.55,0.03,2
1.52,0.07,2
1.53,0.07,2
1.54,0.04,2
1.53,0.05,2
1.52,0.05,2
1.54,0.01,2
1.52,0.01,2
1.51,0.03,2
1.51,0.02,2
1.51,0.01,2
1.5,0.05,2
1.5,0.05,2
1.5,0.03,2
1.49,0.04,2
1.48,0.04,2
1.49,0.01,2
1.48,0.01,2
1.48,0.02,2
1.49,0.01,2
1.49,0.01,2
1.48,0.04,2
1.48,0.04,2
1.49,0.03,2
1.47,0.04,2
1.47,0.05,2
1.48,0.02,2
1.48,0.02,2
1.47,0.04,2
1.48,0.03,2
1.49,0.02,2
1.48,0.06,2
1.48,0.08,2
1.49,0.05,2
1.48,0.08,2
1.48,0.1,2
1.49,0.06,2
1.49,0.04,2
1.48,0.08,2
1.49,0.06,2
1.49,0.04,2
1.48,0.09,2
1.49,0.11,2
1.5,0.08,2
1.49,0.1,2
1.49,0.13,2
1.5,0.08,2
1.49,0.06,2
1.49,0.1,2
1.49,0.09,2
1.5,0.06,2
1.49,0.12,2
1.5,0.15,2
1.51,0.1,2
1.5,0.12,2
1.49,0.15,2
1.5,0.09,2
1.49,0.07,2
1.48,0.12,2
1.5,0.11,2
1.5,0.07,2
1.49,0.14,2
1.5,0.17,2
1.51,0.13,2
1.5,0.14,2
1.5,0.18,2
1.51,0.12,2
1.5,0.09,2
1.49,0.13,2
1.5,0.12,2
1.5,0.09,2
1.49,0.15,2
1.49,0.18,2
1.5,0.14,2
1.49,0.16,2
1.49,0.2,2
1.51,0.14,2
1.5,0.12,2
1.5,0.17,2
1.51,0.15,2
1.5,0.11,2
1.49,0.17,2
1.5,0.21,2
1.52,0.15,2
1.51,0.19,2
1.52,0.25,2
1.53,0.21,2
1.52,0.21,2
1.51,0.3,2
1.52,0.32,2
1.53,0.29,2
1.52,0.4,2
1.53,0.47,2
1.54,0.43,2
1.54,0.49,2
1.53,0.61,2
1.54,0.59,2
1.54,0.6,2
1.53,0.72,2
1.54,0.74,2
1.55,0.71,2
1.54,0.81,2
1.55,0.88,2
1.56,0.83,2
1.55,0.89,2
1.55,1.0,2
1.57,0.98,2
1.56,0.98,2
1.55,1.09,2
1.55,1.1,2
1.56,1.05,2
1.54,1.13,2
1.55,1.17,2
1.55,1.1,2
1.54,1.14,2
1.54,1.22,2
1.55,1.16,2
1.55,1.14,2
1.54,1.23,2
1.55,1.21,2
1.55,1.14,2
1.54,1.2,2
1.54,1.24,2
1.55,1.15,2
1.54,1.18,2
1.54,1.25,2
1.55,1.19,2
1.54,1.16,2
1.54,1.24,2
1.55,1.21,2
1.55,1.14,2
1.54,1.2,2
1.54,1.23,2
1.55,1.15,2
1.54,1.18,2
1.53,1.25,2
1.55,1.18,2
1.54,1.15,2
1.53,1.23,2
1.54,1.21,2
1.54,1.14,2
1.52,1.2,2
1.53,1.23,2
1.54,1.15,2
1.53,1.17,2
1.52,1.24,2
1.54,1.18,2
1.53,1.15,2
1.52,1.23,2
1.53,1.22,2
1.54,1.15,2
1.52,1.21,2
1.53,1.23,2
1.54,1.15,2
1.53,1.17,2
1.53,1.23,2
1.54,1.17,2
1.54,1.14,2
1.53,1.22,2
1.54,1.2,2
1.54,1.12,2
1.52,1.18,2
1.52,1.2,2
1.53,1.11,2
1.52,1.13,2
1.52,1.2,2
1.54,1.13,2
1.53,1.11,2
1.52,1.2,2
1.52,1.17,2
1.53,1.11,2
1.51,1.17,2
1.52,1.2,2
1.53,1.11,2
1.52,1.14,2
1.51,1.21,2
1.53,1.14,2
1.52,1.11,2
1.52,1.19,2
1.53,1.17,2
1.54,1.09,2
1.52,1.16,2
1.53,1.18,2
1.53,1.1,2
1.52,1.12,2
1.51,1.18,2
1.53,1.12,2
1.52,1.09,2
1.52,1.17,2
1.53,1.15,2
1.53,1.07,2
1.51,1.13,2
1.52,1.16,2
1.52,1.08,2
1.52,1.1,2
1.51,1.16,2
1.53,1.1,2
1.53,1.07,2
1.52,1.15,2
1.53,1.13,2
1.54,1.06,2
1.53,1.13,2
1.54,1.15,2
1.54,1.07,2
1.54,1.09,2
1.53,1.16,2
1.55,1.09,2
1.54,1.06,2
1.53,1.15,2
1.53,1.12,2
1.54,1.05,2
1.52,1.11,2
1.53,1.14,2
1.53,1.05,2
1.52,1.07,2
1.51,1.14,2
1.53,1.07,2
1.52,1.05,2
1.52,1.13,2
1.52,1.11,2
1.53,1.04,2
1.51,1.11,2
1.52,1.13,2
1.53,1.05,2
1.52,1.07,2
1.51,1.14,2
1.53,1.07,2
1.52,1.04,2
1.52,1.12,2
1.52,1.1,2
1.53,1.03,2
1.52,1.09,2
1.52,1.11,2
1.53,1.02,2
1.52,1.04,2
1.51,1.11,2
1.53,1.04,2
1.52,1.02,2
1.51,1.1,2
1.52,1.08,2
1.53,1.01,2
1.51,1.07,2
1.52,1.09,2
1.53,1.01,2
1.52,1.04,2
1.51,1.11,2
1.53,1.04,2
1.52,1.02,2
1.52,1.09,2
1.53,1.06,3
1.54,0.99,3
1.52,1.06,3
1.53,1.08,3
1.53,1.0,3
1.52,1.02,3
1.52,1.09,3
1.53,1.02,3
1.53,1.0,3
1.53,1.08,3
1.54,1.05,3
1.54,0.99,3
1.53,1.05,3
1.54,1.07,3
1.55,0.99,3
1.54,1.02,3
1.54,1.08,3
1.55,1.02,3
1.55,1.0,3
1.54,1.08,3
1.55,1.06,3
1.56,0.99,3
1.54,1.06,3
1.54,1.09,3
1.55,1.01,3
1.54,1.03,3
1.53,1.1,3
1.55,1.03,3
1.54,1.02,3
1.54,1.1,3
1.54,1.08,3
1.55,1.02,3
1.53,1.09,3
1.53,1.11,3
1.54,1.03,3
1.53,1.06,3
1.53,1.13,3
1.54,1.06,3
1.54,1.04,3
1.53,1.12,3
1.54,1.09,3
1.54,1.03,3
1.52,1.09,3
1.53,1.11,3
1.53,1.03,3
1.52,1.06,3
1.52,1.12,3
1.53,1.06,3
1.53,1.03,3
1.52,1.11,3
1.53,1.08,3
1.53,1.01,3
1.51,1.08,3
1.52,1.1,3
1.53,1.02,3
1.52,1.05,3
1.52,1.12,3
1.53,1.05,3
1.52,1.03,3
1.52,1.11,3
1.52,1.08,3
1.53,1.01,3
1.51,1.09,3
1.52,1.11,3
1.53,1.03,3
1.52,1.05,3
1.52,1.11,3
1.53,1.05,3
1.53,1.02,3
1.52,1.1,3
1.52,1.07,3
1.53,1.0,3
1.51,1.07,3
1.52,1.09,3
1.52,1.0,3
1.51,1.03,3
1.5,1.09,3
1.52,1.02,3
1.51,1.0,3
1.51,1.09,3
1.51,1.07,3
1.52,1.0,3
1.51,1.07,3
1.51,1.1,3
1.52,1.02,3
1.52,1.05,3
1.52,1.12,3
1.53,1.05,3
1.53,1.03,3
1.52,1.11,3
1.53,1.08,3
1.53,1.0,3
1.52,1.07,3
1.53,1.09,3
1.54,1.0,3
1.53,1.03,3
1.53,1.1,3
1.55,1.03,3
1.55,1.01,3
1.54,1.09,3
1.54,1.07,3
1.55,1.0,3
1.53,1.06,3
1.53,1.08,3
1.54,0.99,3
1.53,1.02,3
1.53,1.09,3
1.54,1.02,3
1.54,1.0,3
1.53,1.08,3
1.54,1.05,3
1.54,0.98,3
1.53,1.04,3
1.54,1.06,3
1.54,0.98,3
1.54,1.0,3
1.53,1.07,3
1.55,1.0,3
1.55,0.98,3
1.54,1.06,3
1.55,1.03,3
1.55,0.96,3
1.54,1.03,3
1.55,1.05,3
1.55,0.97,3
1.55,0.99,3
1.54,1.06,3
1.56,0.99,3
1.55,0.97,3
1.55,1.06,3
1.56,1.03,3
1.56,0.96,3
1.55,1.03,3
1.55,1.05,3
1.55,0.97,3
1.54,1.0,3
1.54,1.06,3
1.55,0.99,3
1.55,0.97,3
1.54,1.05,3
1.55,1.02,3
1.56,0.96,3
1.54,1.03,3
1.55,1.05,3
1.56,0.96,3
1.55,0.99,3
1.55,1.05,3
1.56,0.97,3
1.55,0.95,3
1.54,1.04,3
1.55,1.01,3
1.56,0.94,3
1.54,1.02,3
1.55,1.03,3
1.56,0.95,3
1.55,0.98,3
1.55,1.04,3
1.56,0.97,3
1.55,0.96,3
1.55,1.04,3
1.56,1.01,3
1.56,0.94,3
1.55,1.01,3
1.56,1.02,3
1.56,0.94,3
1.56,0.97,3
1.55,1.04,3
1.57,0.96,3
1.56,0.94,3
1.55,1.03,3
1.56,0.99,3
1.57,0.93,3
1.55,1.0,3
1.55,1.02,3
1.56,0.93,3
1.55,0.96,3
1.54,1.02,3
1.57,0.95,3
1.57,0.92,3
1.56,1.0,3
1.57,0.97,3
1.57,0.91,3
1.56,0.98,3
1.56,1.0,3
1.57,0.92,3
1.56,0.95,3
1.56,1.02,3
1.58,0.95,3
1.58,0.93,3
1.57,1.01,3
1.58,0.98,3
1.58,0.92,3
1.57,0.99,3
1.57,1.01,3
1.58,0.93,3
1.58,0.96,3
1.57,1.02,3
1.59,0.95,3
1.59,0.93,3
1.58,1.02,3
1.59,0.98,3
1.59,0.92,3
1.58,0.99,3
1.58,1.01,3
1.59,0.92,3
1.58,0.95,3
1.57,1.01,3
1.59,0.94,3
1.59,0.92,3
1.58,1.01,3
1.59,0.98,3
1.59,0.91,3
1.58,0.99,3
1.58,1.0,3
1.59,0.92,3
1.58,0.95,3
1.57,1.02,3
1.59,0.94,3
1.59,0.93,3
1.58,1.01,3
1.59,0.98,3
1.59,0.92,3
1.58,0.99,3
1.58,1.0,3
1.58,0.92,3
1.58,0.95,3
1.57,1.02,3
1.59,0.95,3
1.59,0.93,3
1.59,1.02,3
1.59,0.99,3
1.6,0.92,3
1.59,0.99,3
1.59,1.0,3
1.59,0.92,3
1.59,0.95,3
1.58,1.01,3
1.59,0.95,3
1.59,0.93,3
1.58,1.01,3
1.59,0.98,3
1.6,0.91,3
1.58,0.98,3
1.58,1.0,3
1.59,0.91,3
1.58,0.95,3
1.58,1.01,3
1.59,0.94,3
1.59,0.92,3
1.59,1.0,3
1.59,0.96,3
1.6,0.89,3
1.58,0.95,3
1.58,0.97,3
1.58,0.89,3
1.58,0.93,3
1.57,0.99,3
1.59,0.92,3
1.58,0.9,3
1.58,0.97,3
1.58,0.93,3
1.59,0.87,3
1.57,0.94,3
1.57,0.95,3
1.58,0.87,3
1.57,0.9,3
1.56,0.96,3
1.58,0.89,3
1.57,0.87,3
1.57,0.95,3
1.57,0.92,3
1.58,0.85,3
1.56,0.92,3
1.57,0.94,3
1.57,0.85,3
1.57,0.89,3
1.56,0.95,3
1.57,0.88,3
1.57,0.87,3
1.56,0.95,3
1.57,0.92,3
1.57,0.85,3
1.55,0.93,3
1.56,0.94,3
1.56,0.86,3
1.56,0.89,3
1.55,0.95,3
1.57,0.88,3
1.57,0.87,3
1.56,0.95,3
1.57,0.92,3
1.58,0.86,3
1.56,0.93,3
1.56,0.94,3
1.57,0.85,3
1.56,0.88,3
1.56,0.94,3
1.58,0.87,3
1.57,0.86,3
1.57,0.94,3
1.57,0.9,3
1.58,0.84,3
1.56,0.91,3
1.56,0.92,3
1.57,0.84,3
1.56,0.88,3
1.56,0.94,3
1.57,0.86,3
1.57,0.84,3
1.56,0.92,3
1.57,0.88,3
1.57,0.81,3
1.55,0.89,3
1.55,0.9,3
1.56,0.81,3
1.55,0.84,3
1.55,0.9,3
1.56,0.83,3
1.56,0.82,3
1.55,0.9,3
1.55,0.87,3
1.56,0.81,3
1.54,0.88,3
1.55,0.89,3
1.56,0.81,3
1.56,0.84,3
1.55,0.9,3
1.57,0.82,3
1.57,0.81,3
1.57,0.88,3
1.57,0.84,3
1.58,0.77,3
1.56,0.83,3
1.56,0.83,3
1.56,0.72,3
1.55,0.72,3
1.55,0.74,3
1.57,0.62,3
1.57,0.57,3
1.56,0.62,3
1.57,0.54,3
1.58,0.45,3
1.56,0.49,3
1.56,0.46,3
1.57,0.35,3
1.56,0.35,3
1.56,0.38,3
1.57,0.28,3
1.57,0.24,3
1.56,0.29,3
1.57,0.24,3
1.57,0.17,3
1.56,0.22,3
1.57,0.21,3
1.57,0.14,3
1.57,0.16,3
1.56,0.19,3
1.57,0.12,3
1.57,0.1,3
1.56,0.13,3
1.57,0.08,3
1.57,0.05,3
1.55,0.09,3
1.55,0.09,3
1.55,0.06,3
1.54,0.08,3
1.53,0.09,3
1.55,0.05,3
1.54,0.04,3
1.53,0.06,3
1.54,0.03,3
1.54,0.02,3
1.53,0.05,3
1.53,0.05,3
1.54,0.03,3
1.53,0.06,3
1.52,0.06,3
1.54,0.03,3
1.53,0.03,3
1.53,0.04,3
1.54,0.01,3
1.54,0.0,3
1.52,0.03,3
1.52,0.03,3
1.52,0.02,3
1.51,0.05,3
1.5,0.06,3
1.52,0.03,3
1.51,0.03,3
1.51,0.05,3
1.51,0.02,3
1.51,0.02,3
1.5,0.05,3
1.5,0.06,3
1.51,0.04,3
1.5,0.08,3
1.49,0.1,3
1.5,0.07,3
1.49,0.06,3
1.48,0.09,3
1.48,0.06,3
1.49,0.04,3
1.48,0.09,3
1.48,0.11,3
1.48,0.08,3
1.48,0.12,3
1.47,0.15,3
1.48,0.1,3
1.48,0.1,3
1.48,0.13,3
1.49,0.11,3
1.49,0.08,3
1.48,0.14,3
1.49,0.16,3
1.49,0.12,3
1.49,0.16,3
1.48,0.2,3
1.5,0.14,3
1.49,0.14,3
1.49,0.19,3
1.49,0.16,3
1.5,0.11,3
1.48,0.19,3
1.49,0.21,3
1.49,0.16,3
1.49,0.2,3
1.48,0.25,3
1.5,0.18,3
1.49,0.18,3
1.48,0.25,3
1.49,0.22,3
1.49,0.17,3
1.47,0.26,3
1.48,0.27,3
1.48,0.21,3
1.48,0.26,3
1.47,0.32,3
1.49,0.25,3
1.48,0.25,3
1.48,0.33,3
1.49,0.3,3
1.49,0.25,3
1.48,0.32,3
1.49,0.33,3
1.49,0.25,3
1.48,0.29,3
1.48,0.35,3
1.49,0.28,3
1.49,0.28,3
1.48,0.37,3
1.49,0.33,3
1.49,0.28,3
1.48,0.37,3
1.48,0.38,3
1.48,0.3,3
1.48,0.35,3
1.48,0.41,3
1.5,0.35,3
1.51,0.37,3
1.52,0.47,3
1.53,0.46,3
1.53,0.44,3
1.51,0.56,3
1.52,0.61,3
1.52,0.58,3
1.52,0.67,3
1.52,0.78,3
1.53,0.75,3
1.53,0.8,3
1.52,0.93,3
1.53,0.94,3
1.54,0.93,3
1.53,1.05,3
1.53,1.1,3
1.54,1.05,3
1.53,1.13,3
1.53,1.21,3
1.55,1.17,3
1.55,1.2,3
1.55,1.3,3
1.55,1.29,3
1.55,1.25,3
1.54,1.35,3
1.54,1.37,3
1.55,1.3,3
1.54,1.35,3
1.54,1.41,3
1.55,1.34,3
1.55,1.33,3
1.54,1.41,3
1.55,1.37,3
1.55,1.31,3
1.54,1.39,3
1.55,1.39,3
1.56,1.32,3
1.55,1.36,3
1.54,1.42,3
1.56,1.35,3
1.55,1.35,3
1.54,1.43,3
1.55,1.39,3
1.56,1.34,3
1.54,1.42,3
1.55,1.42,3
1.55,1.34,3
1.55,1.38,3
1.55,1.44,3
1.56,1.36,3
1.56,1.36,3
1.55,1.44,3
1.56,1.4,3
1.56,1.35,3
1.54,1.42,3
1.55,1.43,3
1.56,1.34,3
1.55,1.38,3
1.55,1.43,3
1.57,1.35,3
1.57,1.35,3
1.57,1.43,3
1.58,1.39,3
1.59,1.33,3
1.57,1.41,3
1.57,1.42,3
1.57,1.34,3
1.56,1.38,3
1.56,1.44,3
1.58,1.36,3
1.57,1.36,3
1.57,1.44,3
1.57,1.4,3
1.58,1.34,3
1.56,1.42,3
1.57,1.43,3
1.58,1.35,3
1.57,1.39,3
1.57,1.44,3
1.59,1.36,3
1.58,1.36,3
1.58,1.44,3
1.59,1.4,3
1.6,1.35,3
1.58,1.42,3
1.59,1.42,3
1.6,1.34,3
1.6,1.38,3
1.6,1.44,3
1.62,1.36,3
1.62,1.35,3
1.61,1.43,3
1.62,1.39,3
1.62,1.33,3
1.61,1.41,3
1.61,1.42,3
1.62,1.34,3
1.61,1.38,3
1.61,1.44,3
1.63,1.36,3
1.63,1.36,3
1.62,1.45,3
1.63,1.4,3
1.63,1.35,3
1.61,1.43,3
1.62,1.43,3
1.63,1.35,3
1.62,1.4,3
1.62,1.46,3
1.64,1.38,3
1.64,1.38,3
1.63,1.45,3
1.65,1.41,3
1.65,1.35,3
1.64,1.42,3
1.64,1.43,3
1.65,1.35,3
1.64,1.39,3
1.64,1.45,3
1.65,1.37,3
1.65,1.37,3
1.65,1.44,3
1.66,1.4,3
1.67,1.35,3
1.66,1.42,3
1.66,1.43,3
1.67,1.35,3
1.66,1.39,3
1.66,1.44,3
1.68,1.36,3
1.67,1.35,3
1.66,1.43,3
1.67,1.39,3
1.67,1.34,3
1.66,1.42,3
1.67,1.43,3
1.67,1.34,3
1.66,1.39,3
1.66,1.44,3
1.67,1.36,3
1.67,1.35,3
1.66,1.44,3
1.68,1.4,3
1.68,1.35,3
1.67,1.43,3
1.68,1.43,3
1.69,1.35,3
1.67,1.39,3
1.67,1.44,3
1.69,1.36,3
1.69,1.36,3
1.69,1.44,3
1.7,1.39,3
1.71,1.34,3
1.69,1.41,3
1.7,1.41,3
1.71,1.32,3
1.7,1.36,3
1.7,1.41,3
1.71,1.32,3
1.7,1.32,3
1.7,1.39,3
1.7,1.34,3
1.7,1.29,3
1.68,1.36,3
1.69,1.36,3
1.69,1.28,3
1.68,1.32,3
1.68,1.37,3
1.7,1.29,3
1.7,1.28,3
1.69,1.36,4
1.7,1.31,4
1.71,1.26,4
1.69,1.34,4
1.7,1.34,4
1.71,1.26,4
1.69,1.3,4
1.69,1.35,4
1.71,1.27,4
1.7,1.26,4
1.69,1.34,4
1.7,1.3,4
1.7,1.24,4
1.68,1.32,4
1.69,1.31,4
1.7,1.23,4
1.69,1.26,4
1.7,1.32,4
1.71,1.24,4
1.71,1.23,4
1.7,1.31,4
1.71,1.26,4
1.71,1.21,4
1.7,1.29,4
1.7,1.29,4
1.7,1.21,4
1.69,1.25,4
1.69,1.31,4
1.71,1.23,4
1.71,1.22,4
1.7,1.3,4
1.71,1.25,4
1.71,1.19,4
1.69,1.27,4
1.7,1.27,4
1.7,1.19,4
1.69,1.23,4
1.69,1.28,4
1.71,1.2,4
1.7,1.2,4
1.7,1.29,4
1.71,1.24,4
1.71,1.19,4
1.69,1.27,4
1.7,1.26,4
1.7,1.18,4
1.7,1.22,4
1.7,1.27,4
1.72,1.18,4
1.72,1.18,4
1.71,1.25,4
1.73,1.21,4
1.73,1.15,4
1.72,1.23,4
1.72,1.23,4
1.73,1.15,4
1.71,1.2,4
1.72,1.25,4
1.73,1.16,4
1.72,1.15,4
1.71,1.23,4
1.72,1.18,4
1.72,1.13,4
1.7,1.21,4
1.71,1.21,4
1.71,1.13,4
1.7,1.18,4
1.7,1.23,4
1.71,1.14,4
1.71,1.14,4
1.7,1.21,4
1.71,1.16,4
1.71,1.1,4
1.69,1.18,4
1.7,1.18,4
1.7,1.11,4
1.7,1.15,4
1.7,1.2,4
1.72,1.12,4
1.71,1.12,4
1.7,1.19,4
1.71,1.14,4
1.71,1.09,4
1.69,1.17,4
1.7,1.17,4
1.71,1.09,4
1.69,1.13,4
1.7,1.18,4
1.71,1.09,4
1.7,1.09,4
1.69,1.17,4
1.7,1.12,4
1.7,1.07,4
1.69,1.15,4
1.7,1.14,4
1.7,1.06,4
1.69,1.11,4
1.7,1.16,4
1.7,1.08,4
1.7,1.07,4
1.69,1.15,4
1.71,1.1,4
1.7,1.04,4
1.7,1.11,4
1.71,1.11,4
1.71,1.03,4
1.7,1.08,4
1.7,1.13,4
1.71,1.05,4
1.7,1.05,4
1.69,1.13,4
1.7,1.08,4
1.69,1.03,4
1.68,1.11,4
1.68,1.1,4
1.69,1.03,4
1.68,1.07,4
1.69,1.12,4
1.7,1.04,4
1.7,1.04,4
1.7,1.12,4
1.71,1.07,4
1.7,1.02,4
1.69,1.1,4
1.69,1.1,4
1.7,1.02,4
1.69,1.07,4
1.69,1.11,4
1.7,1.03,4
1.69,1.03,4
1.68,1.11,4
1.69,1.07,4
1.68,1.02,4
1.67,1.1,4
1.67,1.09,4
1.68,1.01,4
1.67,1.06,4
1.67,1.11,4
1.68,1.02,4
1.68,1.02,4
1.68,1.1,4
1.69,1.06,4
1.68,1.01,4
1.67,1.09,4
1.68,1.08,4
1.69,1.0,4
1.68,1.04,4
1.69,1.1,4
1.7,1.02,4
1.69,1.02,4
1.68,1.09,4
1.68,1.05,4
1.67,0.99,4
1.65,1.07,4
1.65,1.07,4
1.66,0.99,4
1.64,1.03,4
1.65,1.08,4
1.66,1.0,4
1.65,1.0,4
1.64,1.08,4
1.65,1.03,4
1.64,0.98,4
1.63,1.06,4
1.64,1.05,4
1.64,0.97,4
1.63,1.02,4
1.64,1.07,4
1.65,0.98,4
1.65,0.99,4
1.64,1.06,4
1.65,1.01,4
1.65,0.95,4
1.63,1.03,4
1.63,1.02,4
1.63,0.94,4
1.62,0.99,4
1.62,1.04,4
1.63,0.96,4
1.62,0.96,4
1.61,1.04,4
1.62,0.99,4
1.61,0.93,4
1.6,1.01,4
1.61,1.01,4
1.62,0.92,4
1.6,0.97,4
1.61,1.02,4
1.62,0.95,4
1.61,0.95,4
1.61,1.02,4
1.62,0.97,4
1.62,0.91,4
1.61,0.99,4
1.61,0.98,4
1.61,0.91,4
1.61,0.95,4
1.61,1.01,4
1.62,0.92,4
1.61,0.92,4
1.61,1.0,4
1.61,0.95,4
1.61,0.89,4
1.59,0.98,4
1.6,0.97,4
1.6,0.89,4
1.59,0.94,4
1.6,0.98,4
1.61,0.9,4
1.6,0.9,4
1.59,0.98,4
1.6,0.93,4
1.59,0.88,4
1.57,0.96,4
1.58,0.96,4
1.58,0.88,4
1.57,0.93,4
1.58,0.98,4
1.59,0.9,4
1.58,0.91,4
1.57,0.99,4
1.59,0.94,4
1.58,0.89,4
1.57,0.97,4
1.57,0.96,4
1.57,0.88,4
1.55,0.92,4
1.55,0.97,4
1.56,0.88,4
1.56,0.88,4
1.55,0.96,4
1.56,0.92,4
1.56,0.86,4
1.55,0.95,4
1.55,0.94,4
1.56,0.86,4
1.55,0.91,4
1.56,0.95,4
1.57,0.86,4
1.56,0.86,4
1.56,0.94,4
1.57,0.89,4
1.57,0.84,4
1.56,0.93,4
1.56,0.92,4
1.56,0.84,4
1.55,0.88,4
1.55,0.93,4
1.57,0.85,4
1.56,0.85,4
1.56,0.93,4
1.57,0.88,4
1.56,0.83,4
1.54,0.91,4
1.54,0.9,4
1.54,0.82,4
1.53,0.86,4
1.54,0.91,4
1.55,0.83,4
1.54,0.83,4
1.54,0.91,4
1.54,0.85,4
1.53,0.8,4
1.51,0.89,4
1.51,0.88,4
1.52,0.8,4
1.51,0.85,4
1.52,0.9,4
1.53,0.81,4
1.52,0.81,4
1.51,0.88,4
1.52,0.83,4
1.51,0.78,4
1.49,0.86,4
1.5,0.86,4
1.51,0.79,4
1.5,0.84,4
1.51,0.88,4
1.52,0.8,4
1.51,0.8,4
1.51,0.88,4
1.52,0.82,4
1.51,0.78,4
1.5,0.86,4
1.5,0.85,4
1.51,0.77,4
1.5,0.82,4
1.51,0.86,4
1.52,0.78,4
1.51,0.78,4
1.5,0.86,4
1.51,0.81,4
1.5,0.76,4
1.49,0.85,4
1.49,0.85,4
1.5,0.77,4
1.49,0.82,4
1.49,0.87,4
1.5,0.78,4
1.49,0.79,4
1.49,0.86,4
1.5,0.81,4
1.49,0.76,4
1.48,0.84,4
1.49,0.83,4
1.49,0.75,4
1.48,0.79,4
1.48,0.84,4
1.49,0.76,4
1.48,0.77,4
1.47,0.85,4
1.48,0.8,4
1.47,0.75,4
1.45,0.83,4
1.45,0.83,4
1.46,0.75,4
1.44,0.81,4
1.45,0.86,4
1.46,0.78,4
1.45,0.79,4
1.44,0.87,4
1.45,0.82,4
1.45,0.78,4
1.44,0.86,4
1.44,0.86,4
1.44,0.78,4
1.43,0.84,4
1.44,0.88,4
1.45,0.8,4
1.44,0.81,4
1.44,0.88,4
1.45,0.84,4
1.45,0.8,4
1.44,0.88,4
1.44,0.87,4
1.45,0.8,4
1.43,0.85,4
1.43,0.89,4
1.44,0.81,4
1.43,0.82,4
1.43,0.9,4
1.44,0.85,4
1.43,0.8,4
1.42,0.89,4
1.42,0.88,4
1.43,0.8,4
1.42,0.85,4
1.43,0.9,4
1.44,0.82,4
1.43,0.83,4
1.42,0.91,4
1.43,0.87,4
1.42,0.83,4
1.41,0.91,4
1.41,0.91,4
1.42,0.83,4
1.4,0.89,4
1.41,0.94,4
1.42,0.85,4
1.41,0.86,4
1.41,0.94,4
1.42,0.89,4
1.41,0.84,4
1.41,0.93,4
1.41,0.93,4
1.42,0.85,4
1.41,0.9,4
1.42,0.94,4
1.43,0.86,4
1.42,0.87,4
1.42,0.95,4
1.43,0.9,4
1.42,0.86,4
1.4,0.94,4
1.41,0.93,4
1.41,0.86,4
1.4,0.91,4
1.4,0.96,4
1.41,0.88,4
1.4,0.89,4
1.4,0.97,4
1.4,0.92,4
1.4,0.87,4
1.39,0.96,4
1.39,0.95,4
1.4,0.88,4
1.39,0.94,4
1.4,0.99,4
1.41,0.91,4
1.41,0.92,4
1.4,1.0,4
1.41,0.95,4
1.4,0.91,4
1.39,1.0,4
1.4,1.0,4
1.41,0.93,4
1.39,0.98,4
1.4,1.02,4
1.41,0.95,4
1.41,0.96,4
1.4,1.04,4
1.42,0.99,4
1.41,0.94,4
1.4,1.02,4
1.41,1.02,4
1.41,0.94,4
1.41,1.0,4
1.41,1.04,4
1.42,0.97,4
1.42,0.97,4
1.41,1.04,4
1.42,0.99,4
1.41,0.94,4
1.4,1.0,4
1.41,0.99,4
1.41,0.89,4
1.4,0.92,4
1.4,0.94,4
1.41,0.82,4
1.4,0.78,4
1.4,0.83,4
1.41,0.74,4
1.41,0.67,4
1.4,0.72,4
1.4,0.68,4
1.4,0.56,4
1.39,0.56,4
1.4,0.56,4
1.41,0.44,4
1.4,0.41,4
1.4,0.47,4
1.41,0.39,4
1.4,0.34,4
1.39,0.4,4
1.4,0.36,4
1.41,0.27,4
1.4,0.3,4
1.41,0.31,4
1.42,0.22,4
1.42,0.21,4
1.41,0.27,4
1.43,0.2,4
1.42,0.14,4
1.4,0.2,4
1.41,0.18,4
1.41,0.13,4
1.39,0.17,4
1.4,0.21,4
1.41,0.15,4
1.4,0.15,4
1.39,0.18,4
1.4,0.13,4
1.4,0.09,4
1.38,0.14,4
1.39,0.13,4
1.4,0.09,4
1.39,0.13,4
1.39,0.17,4
1.4,0.12,4
1.39,0.13,4
1.39,0.17,4
1.4,0.11,4
1.39,0.08,4
1.39,0.13,4
1.39,0.11,4
1.4,0.08,4
1.39,0.13,4
1.39,0.15,4
1.4,0.11,4
1.4,0.12,4
1.4,0.15,4
1.41,0.11,4
1.41,0.08,4
1.4,0.13,4
1.41,0.13,4
1.41,0.09,4
1.4,0.14,4
1.4,0.17,4
1.42,0.12,4
1.41,0.14,4
1.4,0.18,4
1.42,0.15,4
1.41,0.12,4
1.4,0.18,4
1.41,0.17,4
1.41,0.12,4
1.4,0.17,4
1.41,0.21,4
1.42,0.15,4
1.41,0.17,4
1.4,0.22,4
1.41,0.18,4
1.4,0.15,4
1.39,0.21,4
1.4,0.21,4
1.41,0.15,4
1.4,0.2,4
1.4,0.25,4
1.41,0.18,4
1.4,0.21,4
1.39,0.27,4
1.4,0.22,4
1.39,0.19,4
1.38,0.26,4
1.39,0.25,4
1.4,0.18,4
1.39,0.24,4
1.39,0.28,4
1.4,0.21,4
1.39,0.22,4
1.39,0.29,4
1.4,0.25,4
1.39,0.21,4
1.38,0.29,4
1.39,0.28,4
1.4,0.21,4
1.39,0.27,4
1.4,0.31,4
1.41,0.23,4
1.4,0.25,4
1.4,0.32,4
1.41,0.28,4
1.4,0.25,4
1.39,0.35,4
1.4,0.36,4
1.41,0.32,4
1.41,0.4,4
1.41,0.47,4
1.42,0.43,4
1.41,0.48,4
1.4,0.6,4
1.41,0.59,4
1.4,0.6,4
1.39,0.73,4
1.4,0.76,4
1.41,0.73,4
1.4,0.83,4
1.41,0.91,4
1.42,0.87,4
1.41,0.92,4
1.41,1.03,4
1.42,1.02,4
1.41,1.01,4
1.41,1.12,4
1.43,1.13,4
1.44,1.08,4
1.43,1.15,4
1.44,1.2,4
1.45,1.13,4
1.44,1.14,4
1.43,1.22,4
1.45,1.17,4
1.44,1.13,4
1.43,1.21,4
1.43,1.2,4
1.44,1.13,4
1.43,1.18,4
1.44,1.22,4
1.45,1.13,4
1.44,1.14,4
1.44,1.22,4
1.45,1.17,4
1.44,1.13,4
1.43,1.21,4
1.44,1.19,4
1.45,1.11,4
1.44,1.16,4
1.45,1.19,4
1.46,1.11,4
1.46,1.12,4
1.45,1.19,4
1.47,1.14,4
1.46,1.1,4
1.45,1.18,4
1.46,1.17,4
1.47,1.1,4
1.46,1.14,4
1.47,1.18,4
1.48,1.09,4
1.47,1.1,4
1.46,1.17,4
1.47,1.11,4
1.47,1.07,4
1.45,1.15,4
1.46,1.14,4
1.46,1.07,4
1.46,1.13,4
1.46,1.18,4
1.48,1.1,4
1.47,1.11,4
1.47,1.18,4
1.47,1.13,4
1.46,1.09,4
1.45,1.17,4
1.46,1.16,4
1.46,1.09,4
1.45,1.14,4
1.46,1.18,4
1.47,1.09,4
1.46,1.1,4
1.45,1.16,4
1.46,1.11,4
1.46,1.06,4
1.45,1.15,4
1.45,1.13,4
1.46,1.06,4
1.44,1.11,4
1.45,1.14,4
1.46,1.06,4
1.46,1.07,4
1.46,1.14,4
1.47,1.09,4
1.46,1.04,4
1.45,1.12,4
1.45,1.11,4
1.45,1.03,4
1.44,1.08,4
1.44,1.12,4
1.45,1.03,4
1.44,1.04,4
1.44,1.11,4
1.45,1.06,4
1.45,1.01,4
1.44,1.09,4
1.45,1.07,4
1.45,0.99,4
1.44,1.04,4
1.45,1.07,4
1.46,0.99,4
1.45,1.0,4
1.45,1.07,4
1.46,1.02,4
1.45,0.98,4
1.45,1.06,4
1.46,1.04,4
1.47,0.97,4
1.46,1.01,4
1.46,1.05,4
1.47,0.97,4
1.47,0.97,4
1.46,1.04,4
1.48,0.98,4
1.47,0.94,4
1.46,1.01,4
1.47,0.99,4
1.48,0.92,5
1.46,0.97,5
1.46,1.01,5
1.47,0.93,5
1.46,0.94,5
1.45,1.02,5
1.46,0.96,5
1.46,0.92,5
1.45,1.0,5
1.46,0.99,5
1.46,0.91,5
1.45,0.95,5
1.46,0.99,5
1.47,0.9,5
1.46,0.91,5
1.46,0.98,5
1.47,0.92,5
1.46,0.87,5
1.45,0.95,5
1.46,0.94,5
1.47,0.86,5
1.46,0.91,5
1.47,0.96,5
1.48,0.87,5
1.47,0.88,5
1.46,0.95,5
1.48,0.89,5
1.47,0.84,5
1.46,0.92,5
1.47,0.91,5
1.47,0.83,5
1.46,0.88,5
1.47,0.92,5
1.47,0.83,5
1.47,0.84,5
1.46,0.91,5
1.47,0.85,5
1.47,0.81,5
1.46,0.9,5
1.47,0.89,5
1.47,0.82,5
1.46,0.88,5
1.47,0.93,5
1.47,0.85,5
1.46,0.86,5
1.46,0.94,5
1.47,0.89,5
1.47,0.85,5
1.46,0.93,5
1.47,0.92,5
1.47,0.84,5
1.46,0.89,5
1.47,0.93,5
1.48,0.84,5
1.48,0.85,5
1.47,0.93,5
1.48,0.87,5
1.48,0.83,5
1.47,0.91,5
1.47,0.89,5
1.47,0.82,5
1.46,0.87,5
1.46,0.91,5
1.47,0.83,5
1.46,0.84,5
1.46,0.91,5
1.47,0.85,5
1.46,0.81,5
1.45,0.89,5
1.46,0.88,5
1.46,0.8,5
1.45,0.86,5
1.46,0.89,5
1.47,0.81,5
1.46,0.82,5
1.46,0.89,5
1.47,0.83,5
1.46,0.79,5
1.45,0.87,5
1.46,0.86,5
1.47,0.78,5
1.46,0.83,5
1.47,0.87,5
1.48,0.78,5
1.47,0.79,5
1.46,0.86,5
1.48,0.8,5
1.47,0.76,5
1.47,0.84,5
1.48,0.83,5
1.48,0.75,5
1.47,0.8,5
1.48,0.84,5
1.48,0.76,5
1.47,0.77,5
1.46,0.84,5
1.47,0.79,5
1.47,0.74,5
1.46,0.82,5
1.46,0.8,5
1.47,0.73,5
1.46,0.78,5
1.46,0.82,5
1.47,0.73,5
1.46,0.74,5
1.46,0.82,5
1.47,0.76,5
1.47,0.72,5
1.46,0.8,5
1.47,0.79,5
1.47,0.71,5
1.46,0.76,5
1.47,0.8,5
1.47,0.71,5
1.47,0.72,5
1.46,0.79,5
1.47,0.73,5
1.46,0.69,5
1.45,0.77,5
1.45,0.75,5
1.46,0.67,5
1.44,0.73,5
1.45,0.76,5
1.46,0.68,5
1.46,0.69,5
1.46,0.76,5
1.47,0.71,5
1.46,0.66,5
1.46,0.75,5
1.46,0.73,5
1.47,0.66,5
1.45,0.71,5
1.46,0.75,5
1.47,0.66,5
1.46,0.68,5
1.45,0.75,5
1.46,0.69,5
1.45,0.65,5
1.43,0.73,5
1.44,0.71,5
1.44,0.63,5
1.43,0.68,5
1.44,0.72,5
1.44,0.63,5
1.44,0.64,5
1.44,0.71,5
1.45,0.65,5
1.44,0.61,5
1.44,0.69,5
1.44,0.68,5
1.45,0.6,5
1.44,0.65,5
1.45,0.69,5
1.46,0.6,5
1.45,0.61,5
1.44,0.68,5
1.45,0.63,5
1.45,0.59,5
1.44,0.67,5
1.45,0.65,5
1.45,0.58,5
1.44,0.64,5
1.44,0.67,5
1.45,0.58,5
1.43,0.59,5
1.43,0.66,5
1.44,0.6,5
1.43,0.56,5
1.43,0.65,5
1.43,0.63,5
1.44,0.55,5
1.42,0.61,5
1.43,0.64,5
1.44,0.55,5
1.43,0.56,5
1.43,0.63,5
1.44,0.57,5
1.43,0.54,5
1.42,0.62,5
1.43,0.6,5
1.43,0.53,5
1.42,0.59,5
1.43,0.64,5
1.44,0.55,5
1.43,0.57,5
1.43,0.64,5
1.44,0.58,5
1.44,0.54,5
1.43,0.62,5
1.43,0.61,5
1.43,0.54,5
1.42,0.59,5
1.43,0.63,5
1.44,0.54,5
1.43,0.55,5
1.43,0.62,5
1.44,0.57,5
1.44,0.53,5
1.43,0.61,5
1.44,0.6,5
1.44,0.52,5
1.43,0.57,5
1.44,0.61,5
1.44,0.52,5
1.43,0.54,5
1.43,0.62,5
1.44,0.57,5
1.44,0.52,5
1.43,0.6,5
1.44,0.58,5
1.44,0.51,5
1.42,0.56,5
1.43,0.6,5
1.44,0.51,5
1.43,0.53,5
1.42,0.6,5
1.43,0.55,5
1.43,0.51,5
1.42,0.6,5
1.42,0.59,5
1.43,0.52,5
1.42,0.57,5
1.42,0.61,5
1.43,0.53,5
1.43,0.54,5
1.42,0.62,5
1.43,0.56,5
1.43,0.53,5
1.42,0.62,5
1.42,0.6,5
1.42,0.53,5
1.41,0.58,5
1.41,0.62,5
1.42,0.53,5
1.41,0.55,5
1.41,0.62,5
1.42,0.56,5
1.41,0.53,5
1.4,0.61,5
1.41,0.59,5
1.41,0.52,5
1.4,0.58,5
1.4,0.62,5
1.41,0.54,5
1.41,0.55,5
1.41,0.63,5
1.43,0.57,5
1.42,0.54,5
1.41,0.62,5
1.41,0.61,5
1.42,0.54,5
1.4,0.6,5
1.41,0.63,5
1.42,0.55,5
1.41,0.56,5
1.41,0.64,5
1.42,0.58,5
1.41,0.54,5
1.41,0.63,5
1.41,0.62,5
1.42,0.55,5
1.41,0.6,5
1.41,0.64,5
1.42,0.55,5
1.41,0.56,5
1.41,0.63,5
1.43,0.57,5
1.42,0.54,5
1.42,0.62,5
1.43,0.61,5
1.43,0.54,5
1.42,0.6,5
1.43,0.63,5
1.43,0.54,5
1.42,0.55,5
1.41,0.62,5
1.42,0.56,5
1.42,0.53,5
1.41,0.62,5
1.42,0.61,5
1.43,0.54,5
1.42,0.6,5
1.43,0.63,5
1.43,0.54,5
1.43,0.55,5
1.43,0.63,5
1.44,0.57,5
1.43,0.54,5
1.42,0.62,5
1.42,0.61,5
1.43,0.53,5
1.42,0.59,5
1.43,0.63,5
1.43,0.55,5
1.43,0.56,5
1.42,0.62,5
1.44,0.56,5
1.43,0.5,5
1.42,0.56,5
1.43,0.52,5
1.43,0.42,5
1.42,0.44,5
1.42,0.44,5
1.43,0.33,5
1.42,0.3,5
1.42,0.33,5
1.44,0.24,5
1.43,0.17,5
1.43,0.21,5
1.44,0.17,5
1.44,0.11,5
1.42,0.14,5
1.43,0.16,5
1.43,0.1,5
1.41,0.09,5
1.4,0.11,5
1.42,0.05,5
1.41,0.03,5
1.39,0.04,5
1.4,0.02,5
1.4,0.01,5
1.38,0.03,5
1.39,0.03,5
1.4,0.02,5
1.39,0.02,5
1.38,0.02,5
1.39,0.0,5
1.38,0.0,5
1.37,0.0,5
1.38,0.0,5
1.38,0.0,5
1.36,0.0,5
1.36,0.0,5
1.37,0.0,5
1.36,0.0,5
1.36,0.0,5
1.37,0.0,5
1.37,0.0,5
1.37,0.0,5
1.38,0.0,5
1.38,0.0,5
1.36,0.0,5
1.36,0.0,5
1.36,0.0,5
1.35,0.0,5
1.34,0.0,5
1.35,0.0,5
1.35,0.0,5
1.34,0.0,5
1.34,0.0,5
1.35,0.0,5
1.33,0.0,5
1.33,0.0,5
1.34,0.0,5
1.33,0.0,5
1.33,0.0,5
1.34,0.0,5
1.33,0.0,5
1.32,0.0,5
1.33,0.0,5
1.33,0.0,5
1.32,0.0,5
1.32,0.0,5
1.32,0.0,5
1.31,0.0,5
1.32,0.0,5
1.33,0.0,5
1.33,0.0,5
1.32,0.0,5
1.33,0.0,5
1.33,0.0,5
1.31,0.01,5
1.32,0.01,5
1.33,0.01,5
1.32,0.01,5
1.32,0.01,5
1.34,0.0,5
1.33,0.0,5
1.32,0.0,5
1.33,0.0,5
1.33,0.0,5
1.32,0.02,5
1.33,0.02,5
1.33,0.02,5
1.33,0.02,5
1.32,0.02,5
1.34,0.01,5
1.33,0.01,5
1.33,0.01,5
1.34,0.01,5
1.35,0.01,5
1.33,0.04,5
1.34,0.04,5
1.35,0.03,5
1.35,0.04,5
1.34,0.04,5
1.36,0.01,5
1.35,0.01,5
1.34,0.02,5
1.34,0.02,5
1.35,0.02,5
1.34,0.05,5
1.35,0.05,5
1.36,0.03,5
1.35,0.05,5
1.35,0.06,5
1.37,0.03,5
1.37,0.03,5
1.37,0.06,5
1.37,0.05,5
1.38,0.04,5
1.36,0.08,5
1.37,0.09,5
1.37,0.06,5
1.36,0.08,5
1.36,0.1,5
1.37,0.06,5
1.36,0.05,5
1.35,0.07,5
1.36,0.06,5
1.37,0.04,5
1.36,0.09,5
1.37,0.1,5
1.38,0.08,5
1.37,0.1,5
1.37,0.13,5
1.38,0.09,5
1.37,0.07,5
1.36,0.11,5
1.37,0.1,5
1.38,0.07,5
1.37,0.15,5
1.39,0.21,5
1.4,0.17,5
1.39,0.23,5
1.39,0.32,5
1.41,0.31,5
1.4,0.32,5
1.4,0.45,5
1.41,0.48,5
1.41,0.46,5
1.41,0.57,5
1.42,0.65,5
1.42,0.61,5
1.41,0.67,5
1.41,0.78,5
1.42,0.76,5
1.41,0.76,5
1.41,0.88,5
1.42,0.89,5
1.43,0.85,5
1.42,0.94,5
1.42,1.01,5
1.43,0.95,5
1.43,0.99,5
1.42,1.07,5
1.43,1.03,5
1.42,1.01,5
1.41,1.1,5
1.42,1.08,5
1.43,1.01,5
1.41,1.07,5
1.42,1.11,5
1.42,1.02,5
1.42,1.04,5
1.41,1.11,5
1.42,1.05,5
1.42,1.02,5
1.41,1.11,5
1.42,1.09,5
1.43,1.02,5
1.42,1.08,5
1.42,1.11,5
1.43,1.03,5
1.42,1.05,5
1.41,1.12,5
1.43,1.06,5
1.42,1.03,5
1.42,1.12,5
1.43,1.1,5
1.44,1.03,5
1.42,1.09,5
1.43,1.12,5
1.44,1.03,5
1.43,1.05,5
1.43,1.12,5
1.44,1.06,5
1.43,1.02,5
1.42,1.11,5
1.43,1.09,5
1.44,1.02,5
1.42,1.08,5
1.43,1.11,5
1.43,1.03,5
1.43,1.05,5
1.42,1.13,5
1.44,1.07,5
1.43,1.04,5
1.42,1.12,5
1.43,1.1,5
1.44,1.03,5
1.43,1.09,5
1.44,1.12,5
1.44,1.03,5
1.43,1.05,5
1.43,1.12,5
1.44,1.06,5
1.44,1.03,5
1.44,1.12,5
1.45,1.1,5
1.45,1.02,5
1.44,1.08,5
1.45,1.1,5
1.46,1.01,5
1.45,1.03,5
1.44,1.1,5
1.46,1.04,5
1.45,1.0,5
1.45,1.08,5
1.46,1.06,5
1.46,0.98,5
1.45,1.04,5
1.45,1.07,5
1.46,0.99,5
1.45,1.0,5
1.45,1.07,5
1.47,1.01,5
1.46,0.97,5
1.45,1.05,5
1.46,1.03,5
1.46,0.95,5
1.44,1.0,5
1.44,1.04,5
1.45,0.96,5
1.45,0.98,5
1.44,1.06,5
1.46,1.0,5
1.45,0.97,5
1.45,1.04,5
1.46,1.02,5
1.46,0.95,5
1.44,1.01,5
1.45,1.04,5
1.45,0.95,5
1.44,0.97,5
1.43,1.04,5
1.45,0.98,5
1.45,0.95,5
1.45,1.03,5
1.46,1.01,5
1.46,0.94,5
1.45,1.0,5
1.45,1.03,5
1.46,0.94,5
1.45,0.96,5
1.45,1.02,5
1.47,0.96,5
1.46,0.93,5
1.45,1.02,5
1.46,1.0,5
1.47,0.93,5
1.45,0.98,5
1.46,1.01,5
1.47,0.92,5
1.46,0.94,5
1.45,1.01,5
1.47,0.95,5
1.46,0.92,5
1.46,1.0,5
1.46,0.98,5
1.47,0.9,5
1.45,0.96,5
1.46,0.99,5
1.47,0.91,5
1.46,0.93,5
1.45,1.0,5
1.46,0.94,5
1.46,0.91,5
1.45,1.0,5
1.46,0.98,5
1.47,0.91,5
1.46,0.97,5
1.46,1.0,5
1.47,0.91,5
1.46,0.93,5
1.46,1.0,5
1.47,0.94,5
1.47,0.91,5
1.47,0.99,5
1.47,0.97,5
1.48,0.9,5
1.46,0.96,5
1.47,0.98,5
1.47,0.9,5
1.47,0.92,5
1.46,0.99,5
1.48,0.92,5
1.47,0.9,5
1.47,0.98,5
1.48,0.96,5
1.5,0.89,5
1.48,0.94,5
1.49,0.97,5
1.49,0.88,5
1.48,0.9,5
1.47,0.97,5
1.48,0.91,5
1.48,0.89,5
1.47,0.97,5
1.48,0.95,5
1.48,0.88,5
1.47,0.94,5
1.47,0.97,5
1.47,0.88,5
1.47,0.9,5
1.46,0.97,5
1.48,0.91,5
1.47,0.88,5
1.46,0.97,5
1.46,0.95,5
1.46,0.88,5
1.45,0.94,5
1.45,0.97,5
1.45,0.89,5
1.44,0.91,5
1.44,0.97,5
1.45,0.91,5
1.45,0.88,5
1.45,0.96,5
1.46,0.94,5
1.46,0.88,5
1.45,0.94,5
1.45,0.97,5
1.46,0.88,5
1.45,0.9,5
1.45,0.97,5
1.47,0.9,5
1.46,0.88,5
1.46,0.96,6
1.47,0.94,6
1.47,0.87,6
1.45,0.93,6
1.46,0.95,6
1.46,0.87,6
1.45,0.89,6
1.45,0.96,6
1.46,0.89,6
1.46,0.87,6
1.46,0.95,6
1.46,0.92,6
1.47,0.84,6
1.46,0.9,6
1.46,0.92,6
1.47,0.83,6
1.46,0.86,6
1.45,0.93,6
1.47,0.87,6
1.46,0.83,6
1.46,0.92,6
1.47,0.9,6
1.47,0.83,6
1.46,0.89,6
1.46,0.92,6
1.47,0.84,6
1.46,0.85,6
1.45,0.92,6
1.47,0.86,6
1.46,0.83,6
1.46,0.91,6
1.47,0.89,6
1.48,0.82,6
1.46,0.88,6
1.47,0.91,6
1.47,0.82,6
1.46,0.84,6
1.45,0.91,6
1.47,0.85,6
1.47,0.81,6
1.46,0.89,6
1.47,0.87,6
1.47,0.8,6
1.45,0.86,6
1.46,0.89,6
1.46,0.81,6
1.45,0.83,6
1.45,0.9,6
1.47,0.83,6
1.46,0.8,6
1.46,0.88,6
1.46,0.86,6
1.46,0.79,6
1.45,0.85,6
1.45,0.89,6
1.46,0.8,6
1.45,0.83,6
1.45,0.89,6
1.47,0.83,6
1.46,0.8,6
1.46,0.88,6
1.47,0.86,6
1.47,0.79,6
1.45,0.85,6
1.46,0.88,6
1.47,0.8,6
1.47,0.82,6
1.47,0.89,6
1.48,0.83,6
1.48,0.8,6
1.48,0.88,6
1.48,0.86,6
1.48,0.79,6
1.46,0.85,6
1.47,0.88,6
1.47,0.8,6
1.47,0.83,6
1.47,0.9,6
1.49,0.84,6
1.48,0.82,6
1.48,0.9,6
1.48,0.88,6
1.48,0.8,6
1.46,0.86,6
1.47,0.89,6
1.48,0.8,6
1.47,0.82,6
1.47,0.89,6
1.49,0.83,6
1.49,0.81,6
1.48,0.89,6
1.49,0.87,6
1.49,0.8,6
1.48,0.86,6
1.49,0.88,6
1.49,0.8,6
1.49,0.82,6
1.48,0.89,6
1.49,0.84,6
1.49,0.81,6
1.49,0.89,6
1.49,0.87,6
1.49,0.79,6
1.48,0.85,6
1.48,0.87,6
1.49,0.78,6
1.49,0.81,6
1.49,0.88,6
1.5,0.82,6
1.49,0.8,6
1.49,0.89,6
1.49,0.87,6
1.49,0.79,6
1.48,0.85,6
1.48,0.87,6
1.49,0.79,6
1.48,0.81,6
1.47,0.89,6
1.49,0.83,6
1.48,0.8,6
1.47,0.89,6
1.48,0.87,6
1.48,0.8,6
1.47,0.85,6
1.48,0.89,6
1.48,0.8,6
1.48,0.82,6
1.48,0.89,6
1.49,0.84,6
1.49,0.81,6
1.49,0.89,6
1.5,0.87,6
1.5,0.8,6
1.49,0.86,6
1.49,0.88,6
1.5,0.8,6
1.5,0.83,6
1.49,0.89,6
1.51,0.82,6
1.5,0.8,6
1.49,0.88,6
1.5,0.86,6
1.51,0.79,6
1.49,0.85,6
1.5,0.88,6
1.5,0.79,6
1.5,0.82,6
1.5,0.89,6
1.51,0.83,6
1.51,0.81,6
1.5,0.9,6
1.51,0.88,6
1.52,0.81,6
1.5,0.87,6
1.5,0.89,6
1.51,0.8,6
1.5,0.83,6
1.49,0.89,6
1.51,0.83,6
1.5,0.8,6
1.5,0.88,6
1.51,0.86,6
1.51,0.79,6
1.5,0.85,6
1.5,0.87,6
1.5,0.79,6
1.49,0.82,6
1.49,0.89,6
1.5,0.82,6
1.5,0.8,6
1.49,0.89,6
1.5,0.86,6
1.5,0.8,6
1.49,0.86,6
1.49,0.89,6
1.5,0.8,6
1.49,0.82,6
1.49,0.87,6
1.5,0.8,6
1.49,0.77,6
1.49,0.85,6
1.5,0.82,6
1.51,0.75,6
1.5,0.82,6
1.5,0.85,6
1.51,0.76,6
1.5,0.79,6
1.5,0.86,6
1.51,0.79,6
1.5,0.76,6
1.5,0.84,6
1.51,0.82,6
1.52,0.75,6
1.51,0.82,6
1.51,0.84,6
1.52,0.76,6
1.51,0.78,6
1.5,0.84,6
1.52,0.77,6
1.51,0.75,6
1.5,0.83,6
1.51,0.81,6
1.51,0.74,6
1.5,0.81,6
1.5,0.84,6
1.51,0.75,6
1.5,0.78,6
1.49,0.84,6
1.51,0.78,6
1.5,0.75,6
1.5,0.84,6
1.51,0.82,6
1.51,0.76,6
1.5,0.82,6
1.5,0.85,6
1.51,0.76,6
1.5,0.79,6
1.49,0.86,6
1.51,0.79,6
1.5,0.77,6
1.5,0.85,6
1.5,0.82,6
1.51,0.75,6
1.49,0.82,6
1.49,0.84,6
1.5,0.76,6
1.49,0.79,6
1.48,0.86,6
1.5,0.78,6
1.49,0.74,6
1.49,0.8,6
1.49,0.74,6
1.5,0.63,6
1.48,0.65,6
1.48,0.63,6
1.48,0.5,6
1.47,0.49,6
1.47,0.51,6
1.48,0.4,6
1.47,0.34,6
1.47,0.38,6
1.47,0.31,6
1.47,0.22,6
1.46,0.25,6
1.47,0.23,6
1.47,0.16,6
1.47,0.16,6
1.47,0.19,6
1.49,0.12,6
1.48,0.08,6
1.48,0.11,6
1.49,0.06,6
1.49,0.03,6
1.48,0.07,6
1.48,0.07,6
1.48,0.05,6
1.48,0.06,6
1.47,0.06,6
1.49,0.01,6
1.48,0.01,6
1.48,0.01,6
1.48,0.0,6
1.48,0.0,6
1.46,0.01,6
1.46,0.01,6
1.47,0.01,6
1.46,0.01,6
1.46,0.01,6
1.47,0.0,6
1.46,0.0,6
1.45,0.0,6
1.46,0.0,6
1.47,0.0,6
1.45,0.01,6
1.46,0.01,6
1.46,0.01,6
1.46,0.01,6
1.45,0.01,6
1.46,0.0,6
1.46,0.0,6
1.45,0.0,6
1.45,0.0,6
1.46,0.0,6
1.44,0.01,6
1.45,0.01,6
1.46,0.01,6
1.46,0.01,6
1.45,0.01,6
1.46,0.0,6
1.45,0.0,6
1.44,0.0,6
1.45,0.0,6
1.45,0.0,6
1.44,0.03,6
1.45,0.03,6
1.46,0.02,6
1.46,0.04,6
1.45,0.04,6
1.46,0.02,6
1.46,0.02,6
1.45,0.03,6
1.46,0.01,6
1.46,0.01,6
1.45,0.04,6
1.45,0.04,6
1.46,0.03,6
1.45,0.06,6
1.45,0.07,6
1.46,0.04,6
1.45,0.03,6
1.45,0.05,6
1.45,0.03,6
1.46,0.02,6
1.45,0.05,6
1.45,0.06,6
1.46,0.04,6
1.45,0.07,6
1.45,0.08,6
1.46,0.05,6
1.46,0.04,6
1.46,0.07,6
1.46,0.04,6
1.46,0.03,6
1.45,0.09,6
1.45,0.11,6
1.45,0.09,6
1.45,0.15,6
1.44,0.21,6
1.46,0.18,6
1.46,0.2,6
1.45,0.3,6
1.47,0.31,6
1.47,0.29,6
1.46,0.39,6
1.47,0.45,6
1.48,0.4,6
1.48,0.47,6
1.47,0.57,6
1.49,0.54,6
1.49,0.56,6
1.48,0.69,6
1.48,0.7,6
1.49,0.68,6
1.47,0.79,6
1.47,0.86,6
1.48,0.81,6
1.48,0.88,6
1.47,0.97,6
1.48,0.93,6
1.48,0.93,6
1.47,1.03,6
1.48,1.02,6
1.48,0.96,6
1.46,1.04,6
1.47,1.07,6
1.48,0.99,6
1.47,1.02,6
1.47,1.09,6
1.5,1.03,6
1.49,1.01,6
1.49,1.09,6
1.5,1.07,6
1.51,1.01,6
1.49,1.08,6
1.49,1.1,6
1.5,1.02,6
1.5,1.05,6
1.49,1.12,6
1.51,1.05,6
1.5,1.03,6
1.5,1.11,6
1.5,1.09,6
1.51,1.03,6
1.49,1.09,6
1.5,1.12,6
1.5,1.04,6
1.5,1.07,6
1.5,1.14,6
1.51,1.08,6
1.51,1.06,6
1.5,1.14,6
1.51,1.12,6
1.52,1.05,6
1.5,1.12,6
1.51,1.15,6
1.51,1.06,6
1.51,1.09,6
1.5,1.16,6
1.51,1.09,6
1.51,1.07,6
1.51,1.16,6
1.51,1.13,6
1.52,1.06,6
1.51,1.13,6
1.52,1.15,6
1.52,1.07,6
1.51,1.1,6
1.51,1.17,6
1.52,1.1,6
1.51,1.08,6
1.51,1.16,6
1.51,1.13,6
1.52,1.07,6
1.5,1.14,6
1.5,1.17,6
1.5,1.08,6
1.49,1.11,6
1.49,1.18,6
1.5,1.11,6
1.5,1.08,6
1.49,1.16,6
1.5,1.13,6
1.5,1.07,6
1.49,1.13,6
1.49,1.15,6
1.5,1.06,6
1.5,1.08,6
1.49,1.14,6
1.51,1.07,6
1.5,1.05,6
1.5,1.13,6
1.5,1.1,6
1.51,1.03,6
1.5,1.1,6
1.51,1.12,6
1.51,1.04,6
1.51,1.06,6
1.51,1.12,6
1.52,1.04,6
1.52,1.02,6
1.52,1.1,6
1.52,1.06,6
1.53,1.0,6
1.52,1.07,6
1.53,1.09,6
1.53,1.0,6
1.53,1.03,6
1.53,1.09,6
1.55,1.01,6
1.54,0.99,6
1.54,1.07,6
1.55,1.04,6
1.55,0.97,6
1.54,1.04,6
1.54,1.07,6
1.54,0.98,6
1.52,1.01,6
1.52,1.07,6
1.53,1.0,6
1.53,0.98,6
1.52,1.07,6
1.53,1.04,6
1.54,0.96,6
1.52,1.03,6
1.52,1.05,6
1.53,0.97,6
1.53,0.99,6
1.53,1.06,6
1.55,0.99,6
1.56,0.97,6
1.56,1.05,6
1.57,1.02,6
1.57,0.95,6
1.55,1.02,6
1.56,1.04,6
1.56,0.96,6
1.56,0.98,6
1.56,1.05,6
1.57,0.98,6
1.57,0.96,6
1.56,1.04,6
1.56,1.02,6
1.57,0.95,6
1.55,1.02,6
1.56,1.04,6
1.57,0.95,6
1.56,0.97,6
1.55,1.04,6
1.57,0.97,6
1.56,0.95,6
1.55,1.04,6
1.55,1.01,6
1.56,0.94,6
1.54,1.01,6
1.55,1.03,6
1.56,0.94,6
1.56,0.97,6
1.55,1.04,6
1.57,0.98,6
1.57,0.96,6
1.56,1.05,6
1.56,1.02,6
1.56,0.95,6
1.54,1.02,6
1.55,1.04,6
1.56,0.95,6
1.56,0.98,6
1.55,1.05,6
1.57,0.97,6
1.57,0.95,6
1.56,1.03,6
1.57,1.0,6
1.58,0.94,6
1.56,1.01,6
1.57,1.03,6
1.57,0.94,6
1.56,0.96,6
1.56,1.03,6
1.58,0.96,6
1.58,0.94,6
1.58,1.02,6
1.59,1.0,6
1.59,0.93,6
1.57,1.0,6
1.58,1.02,6
1.58,0.93,6
1.57,0.96,6
1.57,1.02,6
1.58,0.95,6
1.58,0.93,6
1.57,1.02,6
1.58,0.99,6
1.59,0.93,6
1.57,1.0,6
1.58,1.02,6
1.58,0.94,6
1.58,0.96,6
1.57,1.02,6
1.58,0.95,6
1.58,0.93,6
1.57,1.01,6
1.58,0.99,6
1.59,0.92,6
1.57,0.99,6
1.58,1.01,6
1.59,0.92,6
1.58,0.95,6
1.57,1.02,6
1.59,0.95,6
1.58,0.93,6
1.58,1.02,6
1.58,0.99,6
1.59,0.92,6
1.58,0.98,6
1.58,1.0,6
1.59,0.92,6
1.58,0.95,6
1.57,1.01,6
1.59,0.95,6
1.58,0.93,6
1.57,1.02,6
1.58,0.99,6
1.58,0.92,6
1.57,0.99,6
1.57,1.01,6
1.58,0.93,6
1.57,0.96,6
1.57,1.03,7
1.58,0.96,7
1.57,0.93,7
1.57,1.02,7
1.57,0.99,7
1.58,0.93,7
1.56,1.0,7
1.57,1.02,7
1.57,0.93,7
1.57,0.95,7
1.56,1.02,7
1.58,0.94,7
1.58,0.92,7
1.58,1.01,7
1.58,0.98,7
1.59,0.91,7
1.57,0.98,7
1.58,1.0,7
1.58,0.91,7
1.57,0.94,7
1.57,1.0,7
1.59,0.94,7
1.58,0.92,7
1.58,1.0,7
1.58,0.97,7
1.59,0.9,7
1.57,0.96,7
1.58,0.98,7
1.59,0.89,7
1.58,0.92,7
1.58,0.99,7
1.6,0.93,7
1.59,0.91,7
1.59,0.99,7
1.59,0.96,7
1.6,0.89,7
1.58,0.95,7
1.58,0.97,7
1.59,0.89,7
1.58,0.92,7
1.58,0.98,7
1.6,0.92,7
1.59,0.89,7
1.58,0.97,7
1.59,0.94,7
1.59,0.88,7
1.57,0.94,7
1.58,0.96,7
1.58,0.88,7
1.58,0.9,7
1.58,0.97,7
1.59,0.9,7
1.59,0.88,7
1.58,0.96,7
1.59,0.94,7
1.6,0.87,7
1.58,0.94,7
1.6,0.96,7
1.6,0.88,7
1.59,0.9,7
1.59,0.97,7
1.61,0.9,7
1.6,0.88,7
1.6,0.97,7
1.61,0.94,7
1.61,0.88,7
1.59,0.95,7
1.59,0.96,7
1.59,0.88,7
1.59,0.9,7
1.58,0.96,7
1.6,0.9,7
1.6,0.88,7
1.59,0.96,7
1.6,0.94,7
1.6,0.87,7
1.58,0.93,7
1.58,0.95,7
1.58,0.87,7
1.58,0.89,7
1.58,0.96,7
1.6,0.89,7
1.59,0.86,7
1.59,0.94,7
1.59,0.92,7
1.59,0.85,7
1.57,0.92,7
1.58,0.94,7
1.58,0.86,7
1.58,0.89,7
1.57,0.96,7
1.59,0.89,7
1.58,0.87,7
1.58,0.95,7
1.58,0.92,7
1.58,0.85,7
1.56,0.92,7
1.57,0.94,7
1.58,0.85,7
1.57,0.87,7
1.57,0.94,7
1.59,0.87,7
1.58,0.85,7
1.57,0.93,7
1.58,0.91,7
1.58,0.84,7
1.56,0.91,7
1.57,0.93,7
1.57,0.84,7
1.56,0.87,7
1.56,0.94,7
1.57,0.87,7
1.57,0.85,7
1.56,0.93,7
1.57,0.9,7
1.58,0.83,7
1.57,0.9,7
1.57,0.93,7
1.58,0.84,7
1.57,0.87,7
1.56,0.94,7
1.58,0.87,7
1.57,0.85,7
1.57,0.93,7
1.57,0.91,7
1.58,0.84,7
1.56,0.91,7
1.57,0.93,7
1.57,0.84,7
1.57,0.86,7
1.56,0.93,7
1.58,0.86,7
1.57,0.84,7
1.57,0.93,7
1.57,0.9,7
1.58,0.82,7
1.56,0.89,7
1.56,0.91,7
1.57,0.82,7
1.56,0.85,7
1.56,0.91,7
1.58,0.84,7
1.58,0.82,7
1.58,0.9,7
1.59,0.88,7
1.59,0.82,7
1.58,0.88,7
1.58,0.9,7
1.59,0.82,7
1.58,0.84,7
1.58,0.9,7
1.59,0.84,7
1.59,0.81,7
1.58,0.9,7
1.59,0.87,7
1.59,0.81,7
1.57,0.88,7
1.58,0.9,7
1.58,0.82,7
1.58,0.85,7
1.58,0.91,7
1.59,0.85,7
1.59,0.82,7
1.58,0.91,7
1.58,0.88,7
1.59,0.81,7
1.57,0.87,7
1.58,0.89,7
1.59,0.8,7
1.58,0.83,7
1.57,0.89,7
1.59,0.83,7
1.59,0.8,7
1.58,0.88,7
1.59,0.86,7
1.59,0.79,7
1.57,0.85,7
1.58,0.88,7
1.58,0.8,7
1.58,0.83,7
1.58,0.9,7
1.59,0.83,7
1.59,0.8,7
1.59,0.89,7
1.59,0.86,7
1.6,0.8,7
1.58,0.87,7
1.58,0.9,7
1.59,0.82,7
1.58,0.85,7
1.58,0.92,7
1.6,0.85,7
1.59,0.83,7
1.59,0.91,7
1.59,0.89,7
1.59,0.82,7
1.58,0.88,7
1.58,0.91,7
1.58,0.82,7
1.58,0.84,7
1.58,0.9,7
1.59,0.84,7
1.59,0.8,7
1.58,0.88,7
1.59,0.86,7
1.59,0.79,7
1.57,0.85,7
1.58,0.88,7
1.59,0.8,7
1.58,0.82,7
1.58,0.89,7
1.6,0.83,7
1.6,0.8,7
1.59,0.88,7
1.6,0.86,7
1.6,0.8,7
1.58,0.86,7
1.58,0.89,7
1.58,0.81,7
1.58,0.84,7
1.57,0.9,7
1.58,0.84,7
1.58,0.81,7
1.57,0.9,7
1.58,0.88,7
1.58,0.81,7
1.57,0.88,7
1.57,0.9,7
1.57,0.81,7
1.57,0.84,7
1.56,0.9,7
1.58,0.84,7
1.58,0.81,7
1.57,0.9,7
1.58,0.87,7
1.58,0.8,7
1.57,0.87,7
1.57,0.89,7
1.58,0.81,7
1.57,0.84,7
1.57,0.9,7
1.58,0.84,7
1.58,0.8,7
1.57,0.89,7
1.58,0.86,7
1.59,0.79,7
1.57,0.85,7
1.57,0.87,7
1.58,0.77,7
1.57,0.77,7
1.56,0.82,7
1.58,0.72,7
1.57,0.66,7
1.56,0.71,7
1.56,0.64,7
1.57,0.54,7
1.54,0.57,7
1.54,0.56,7
1.55,0.44,7
1.54,0.43,7
1.54,0.47,7
1.56,0.37,7
1.55,0.32,7
1.55,0.38,7
1.55,0.33,7
1.55,0.24,7
1.53,0.28,7
1.54,0.29,7
1.55,0.21,7
1.54,0.22,7
1.54,0.26,7
1.55,0.18,7
1.54,0.13,7
1.53,0.17,7
1.54,0.13,7
1.54,0.08,7
1.53,0.14,7
1.54,0.13,7
1.55,0.09,7
1.54,0.09,7
1.54,0.11,7
1.55,0.05,7
1.55,0.05,7
1.54,0.05,7
1.55,0.03,7
1.56,0.01,7
1.54,0.03,7
1.54,0.03,7
1.54,0.03,7
1.53,0.03,7
1.53,0.03,7
1.54,0.01,7
1.54,0.01,7
1.54,0.01,7
1.54,0.0,7
1.54,0.0,7
1.52,0.02,7
1.53,0.02,7
1.54,0.02,7
1.53,0.03,7
1.52,0.03,7
1.54,0.0,7
1.53,0.0,7
1.52,0.01,7
1.53,0.0,7
1.54,0.0,7
1.53,0.03,7
1.53,0.03,7
1.54,0.03,7
1.53,0.05,7
1.53,0.05,7
1.54,0.02,7
1.54,0.02,7
1.54,0.04,7
1.54,0.02,7
1.55,0.02,7
1.53,0.05,7
1.53,0.06,7
1.54,0.04,7
1.53,0.07,7
1.53,0.1,7
1.54,0.06,7
1.54,0.06,7
1.54,0.08,7
1.55,0.06,7
1.55,0.04,7
1.53,0.09,7
1.54,0.12,7
1.55,0.09,7
1.54,0.12,7
1.53,0.14,7
1.55,0.09,7
1.54,0.06,7
1.54,0.1,7
1.54,0.08,7
1.55,0.05,7
1.54,0.11,7
1.54,0.13,7
1.54,0.1,7
1.53,0.13,7
1.53,0.16,7
1.54,0.11,7
1.54,0.08,7
1.53,0.13,7
1.54,0.1,7
1.54,0.07,7
1.53,0.13,7
1.53,0.16,7
1.54,0.12,7
1.53,0.15,7
1.52,0.19,7
1.54,0.12,7
1.54,0.1,7
1.53,0.15,7
1.55,0.13,7
1.55,0.09,7
1.54,0.16,7
1.54,0.19,7
1.55,0.14,7
1.55,0.17,7
1.55,0.23,7
1.57,0.2,7
1.57,0.2,7
1.56,0.28,7
1.57,0.29,7
1.58,0.25,7
1.56,0.35,7
1.57,0.4,7
1.58,0.36,7
1.57,0.43,7
1.57,0.54,7
1.58,0.52,7
1.57,0.53,7
1.57,0.66,7
1.58,0.69,7
1.59,0.67,7
1.57,0.78,7
1.58,0.85,7
1.58,0.81,7
1.58,0.87,7
1.57,0.98,7
1.58,0.94,7
1.57,0.94,7
1.57,1.05,7
1.57,1.04,7
1.58,0.98,7
1.57,1.06,7
1.57,1.09,7
1.58,1.01,7
1.58,1.03,7
1.57,1.1,7
1.59,1.04,7
1.59,1.03,7
1.58,1.11,7
1.59,1.1,7
1.59,1.03,7
1.57,1.1,7
1.57,1.13,7
1.58,1.04,7
1.57,1.07,7
1.57,1.14,7
1.59,1.07,7
1.58,1.05,7
1.57,1.14,7
1.58,1.11,7
1.59,1.04,7
1.57,1.11,7
1.58,1.13,7
1.59,1.05,7
1.58,1.07,7
1.57,1.14,7
1.59,1.07,7
1.58,1.04,7
1.58,1.13,7
1.59,1.1,7
1.6,1.04,7
1.58,1.1,7
1.58,1.13,7
1.59,1.05,7
1.58,1.07,7
1.57,1.14,7
1.59,1.08,7
1.58,1.07,7
1.57,1.16,7
1.58,1.14,7
1.59,1.09,7
1.57,1.15,7
1.57,1.18,7
1.58,1.09,7
1.57,1.12,7
1.56,1.19,7
1.58,1.13,7
1.57,1.11,7
1.56,1.2,7
1.57,1.18,7
1.58,1.11,7
1.56,1.17,7
1.57,1.2,7
1.58,1.11,7
1.57,1.13,7
1.56,1.2,7
1.58,1.13,7
1.57,1.11,7
1.57,1.19,7
1.57,1.17,7
1.58,1.1,7
1.56,1.16,7
1.57,1.19,7
1.58,1.1,7
1.57,1.12,7
1.56,1.18,7
1.58,1.12,7
1.57,1.09,7
1.56,1.18,7
1.57,1.16,7
1.58,1.09,7
1.56,1.15,7
1.57,1.18,7
1.57,1.09,7
1.57,1.11,7
1.56,1.18,7
1.58,1.11,7
1.58,1.09,7
1.57,1.18,7
1.58,1.15,7
1.59,1.09,7
1.57,1.15,7
1.57,1.18,7
1.58,1.09,7
1.57,1.12,7
1.56,1.19,7
1.57,1.12,7
1.57,1.1,7
1.57,1.18,7
1.57,1.16,7
1.58,1.08,7
1.56,1.15,7
1.57,1.17,7
1.57,1.09,7
1.56,1.11,7
1.56,1.18,7
1.58,1.11,7
1.57,1.08,7
1.57,1.15,7
1.58,1.12,7
1.59,1.05,7
1.57,1.11,7
1.58,1.14,7
1.59,1.05,7
1.58,1.07,7
1.58,1.14,7
1.59,1.07,7
1.59,1.04,7
1.59,1.13,7
1.6,1.11,7
1.6,1.04,7
1.59,1.1,7
1.59,1.12,7
1.6,1.02,7
1.6,1.04,7
1.59,1.1,7
1.61,1.03,7
1.6,1.0,7
1.6,1.08,7
1.61,1.06,7
1.61,0.99,7
1.59,1.05,7
1.6,1.08,7
1.6,0.99,7
1.59,1.01,7
1.59,1.08,7
1.6,1.01,7
1.6,0.99,7
1.59,1.07,7
1.6,1.05,7
1.6,0.98,7
1.58,1.04,7
1.59,1.06,7
1.59,0.98,7
1.58,1.0,7
1.57,1.08,7
1.59,1.01,7
1.58,0.99,7
1.58,1.07,7
1.58,1.05,7
1.59,0.98,7
1.57,1.04,7
1.57,1.06,7
1.58,0.98,7
1.57,1.0,7
1.56,1.08,7
1.58,1.01,7
1.58,0.98,7
1.57,1.06,7
1.58,1.03,7
1.59,0.96,7
1.57,1.02,7
1.57,1.05,7
1.58,0.97,7
1.57,0.99,7
1.56,1.06,7
1.57,1.0,7
1.57,0.97,7
1.56,1.05,7
1.57,1.02,7
1.57,0.95,7
1.55,1.01,7
1.56,1.03,7
1.57,0.94,7
1.56,0.96,7
1.55,1.03,7
1.57,0.97,7
1.56,0.94,7
1.55,1.03,7
1.56,1.01,7
1.57,0.94,7
1.56,1.0,7
1.56,1.03,7
1.57,0.94,7
1.55,0.96,7
1.54,1.03,7
1.56,0.96,7
1.55,0.94,7
1.55,1.02,7
1.56,1.0,7
1.56,0.93,7
1.54,0.99,7
1.55,1.02,7
1.56,0.94,7
1.55,0.96,7
1.55,1.03,7
1.57,0.96,7
1.56,0.93,7
1.55,1.01,7
1.55,0.99,7
1.56,0.92,7
1.54,0.98,7
1.55,1.01,7
1.55,0.93,7
1.54,0.95,7
1.54,1.02,8
1.56,0.95,8
1.55,0.92,8
1.55,1.0,8
1.56,0.97,8
1.56,0.9,8
1.55,0.97,8
1.56,1.0,8
1.57,0.91,8
1.56,0.93,8
1.56,1.0,8
1.57,0.94,8
1.56,0.91,8
1.56,0.99,8
1.57,0.97,8
1.57,0.9,8
1.55,0.96,8
1.56,0.99,8
1.56,0.91,8
1.55,0.93,8
1.54,1.0,8
1.56,0.93,8
1.55,0.9,8
1.55,0.98,8
1.56,0.96,8
1.57,0.89,8
1.55,0.96,8
1.56,0.99,8
1.57,0.9,8
1.56,0.92,8
1.56,0.99,8
1.58,0.93,8
1.57,0.9,8
1.56,0.99,8
1.57,0.97,8
1.58,0.9,8
1.56,0.95,8
1.57,0.99,8
1.57,0.9,8
1.56,0.92,8
1.55,0.99,8
1.57,0.93,8
1.56,0.89,8
1.56,0.97,8
1.56,0.96,8
1.57,0.89,8
1.56,0.95,8
1.57,0.98,8
1.58,0.9,8
1.58,0.92,8
1.57,0.99,8
1.59,0.93,8
1.58,0.9,8
1.57,0.98,8
1.58,0.96,8
1.58,0.89,8
1.56,0.95,8
1.57,0.97,8
1.57,0.89,8
1.56,0.91,8
1.56,0.98,8
1.58,0.92,8
1.56,0.89,8
1.56,0.98,8
1.57,0.95,8
1.57,0.88,8
1.55,0.94,8
1.56,0.98,8
1.56,0.89,8
1.56,0.91,8
1.55,0.99,8
1.57,0.92,8
1.56,0.89,8
1.55,0.98,8
1.56,0.95,8
1.56,0.88,8
1.54,0.94,8
1.55,0.98,8
1.55,0.89,8
1.54,0.91,8
1.53,0.99,8
1.55,0.93,8
1.54,0.9,8
1.53,0.98,8
1.54,0.95,8
1.54,0.88,8
1.53,0.94,8
1.54,0.97,8
1.55,0.88,8
1.54,0.9,8
1.53,0.97,8
1.55,0.91,8
1.54,0.88,8
1.53,0.97,8
1.54,0.95,8
1.54,0.88,8
1.52,0.94,8
1.53,0.97,8
1.54,0.89,8
1.53,0.9,8
1.52,0.97,8
1.54,0.91,8
1.53,0.88,8
1.52,0.97,8
1.53,0.95,8
1.53,0.88,8
1.51,0.94,8
1.52,0.97,8
1.53,0.88,8
1.52,0.9,8
1.51,0.97,8
1.53,0.91,8
1.52,0.88,8
1.51,0.97,8
1.52,0.95,8
1.53,0.88,8
1.51,0.94,8
1.52,0.96,8
1.53,0.87,8
1.52,0.89,8
1.51,0.96,8
1.53,0.9,8
1.52,0.87,8
1.51,0.95,8
1.52,0.93,8
1.53,0.86,8
1.51,0.92,8
1.52,0.95,8
1.53,0.86,8
1.53,0.88,8
1.53,0.95,8
1.55,0.89,8
1.54,0.86,8
1.54,0.95,8
1.55,0.93,8
1.55,0.86,8
1.54,0.91,8
1.55,0.94,8
1.56,0.86,8
1.55,0.88,8
1.55,0.95,8
1.57,0.89,8
1.56,0.86,8
1.55,0.95,8
1.56,0.93,8
1.57,0.86,8
1.55,0.92,8
1.56,0.95,8
1.56,0.87,8
1.55,0.89,8
1.54,0.96,8
1.56,0.91,8
1.55,0.88,8
1.54,0.96,8
1.55,0.95,8
1.55,0.88,8
1.54,0.94,8
1.55,0.97,8
1.55,0.89,8
1.55,0.91,8
1.54,0.99,8
1.55,0.93,8
1.54,0.91,8
1.53,0.99,8
1.54,0.97,8
1.54,0.91,8
1.52,0.97,8
1.53,1.0,8
1.54,0.92,8
1.53,0.94,8
1.53,1.01,8
1.55,0.96,8
1.54,0.93,8
1.54,1.01,8
1.55,1.0,8
1.55,0.93,8
1.54,1.0,8
1.55,1.04,8
1.55,0.97,8
1.54,0.99,8
1.54,1.07,8
1.55,1.02,8
1.55,0.99,8
1.54,1.08,8
1.55,1.06,8
1.55,0.99,8
1.54,1.05,8
1.54,1.09,8
1.55,1.01,8
1.54,1.03,8
1.53,1.11,8
1.54,1.05,8
1.54,1.02,8
1.53,1.11,8
1.54,1.09,8
1.54,1.03,8
1.52,1.09,8
1.53,1.12,8
1.54,1.03,8
1.53,1.05,8
1.53,1.12,8
1.54,1.07,8
1.53,1.04,8
1.52,1.13,8
1.53,1.11,8
1.53,1.04,8
1.51,1.1,8
1.52,1.13,8
1.53,1.04,8
1.53,1.06,8
1.52,1.14,8
1.54,1.09,8
1.53,1.06,8
1.53,1.15,8
1.54,1.14,8
1.55,1.07,8
1.54,1.13,8
1.54,1.17,8
1.55,1.09,8
1.54,1.11,8
1.54,1.18,8
1.56,1.13,8
1.55,1.11,8
1.55,1.2,8
1.56,1.19,8
1.56,1.12,8
1.55,1.19,8
1.55,1.22,8
1.56,1.14,8
1.55,1.16,8
1.55,1.23,8
1.57,1.18,8
1.56,1.15,8
1.55,1.24,8
1.56,1.23,8
1.57,1.16,8
1.55,1.23,8
1.55,1.27,8
1.56,1.18,8
1.55,1.2,8
1.55,1.27,8
1.56,1.22,8
1.55,1.19,8
1.54,1.28,8
1.55,1.27,8
1.55,1.21,8
1.53,1.27,8
1.54,1.31,8
1.55,1.22,8
1.54,1.24,8
1.54,1.31,8
1.55,1.24,8
1.54,1.19,8
1.53,1.25,8
1.54,1.2,8
1.54,1.09,8
1.52,1.12,8
1.53,1.11,8
1.54,0.99,8
1.53,0.97,8
1.52,1.01,8
1.53,0.91,8
1.52,0.85,8
1.52,0.9,8
1.53,0.84,8
1.53,0.73,8
1.52,0.76,8
1.52,0.76,8
1.53,0.65,8
1.52,0.65,8
1.51,0.7,8
1.53,0.62,8
1.52,0.57,8
1.5,0.63,8
1.51,0.59,8
1.51,0.51,8
1.5,0.56,8
1.51,0.58,8
1.51,0.48,8
1.51,0.49,8
1.5,0.56,8
1.51,0.5,8
1.5,0.47,8
1.49,0.55,8
1.5,0.52,8
1.5,0.44,8
1.49,0.48,8
1.49,0.51,8
1.51,0.42,8
1.5,0.43,8
1.49,0.5,8
1.51,0.44,8
1.51,0.4,8
1.49,0.49,8
1.51,0.47,8
1.52,0.41,8
1.5,0.46,8
1.51,0.49,8
1.52,0.41,8
1.51,0.43,8
1.51,0.5,8
1.52,0.44,8
1.51,0.41,8
1.51,0.5,8
1.52,0.49,8
1.53,0.44,8
1.51,0.51,8
1.52,0.54,8
1.53,0.47,8
1.52,0.5,8
1.52,0.57,8
1.54,0.52,8
1.53,0.49,8
1.52,0.57,8
1.53,0.55,8
1.54,0.48,8
1.53,0.53,8
1.54,0.57,8
1.55,0.49,8
1.54,0.51,8
1.53,0.59,8
1.55,0.54,8
1.54,0.5,8
1.54,0.58,8
1.56,0.57,8
1.56,0.51,8
1.55,0.57,8
1.56,0.6,8
1.57,0.53,8
1.56,0.55,8
1.55,0.63,8
1.56,0.58,8
1.56,0.55,8
1.55,0.64,8
1.55,0.62,8
1.56,0.55,8
1.54,0.62,8
1.55,0.65,8
1.56,0.56,8
1.55,0.59,8
1.55,0.66,8
1.57,0.6,8
1.56,0.57,8
1.56,0.66,8
1.57,0.64,8
1.58,0.57,8
1.57,0.63,8
1.58,0.67,8
1.59,0.59,8
1.58,0.6,8
1.58,0.68,8
1.59,0.62,8
1.59,0.6,8
1.58,0.68,8
1.6,0.67,8
1.61,0.6,8
1.59,0.66,8
1.6,0.69,8
1.61,0.61,8
1.61,0.63,8
1.6,0.72,8
1.62,0.68,8
1.62,0.68,8
1.61,0.8,8
1.62,0.82,8
1.62,0.8,8
1.61,0.9,8
1.62,0.98,8
1.63,0.94,8
1.63,1.01,8
1.62,1.13,8
1.64,1.12,8
1.63,1.14,8
1.62,1.28,8
1.64,1.31,8
1.64,1.28,8
1.63,1.38,8
1.64,1.46,8
1.66,1.41,8
1.65,1.46,8
1.65,1.56,8
1.67,1.53,8
1.66,1.52,8
1.65,1.62,8
1.66,1.62,8
1.67,1.55,8
1.65,1.61,8
1.66,1.65,8
1.66,1.57,8
1.66,1.58,8
1.65,1.66,8
1.67,1.6,8
1.66,1.57,8
1.65,1.65,8
1.66,1.63,8
1.66,1.55,8
1.65,1.61,8
1.66,1.64,8
1.67,1.56,8
1.67,1.57,8
1.66,1.65,8
1.67,1.59,8
1.66,1.56,8
1.66,1.64,8
1.66,1.63,8
1.68,1.56,8
1.67,1.61,8
1.68,1.64,8
1.69,1.56,8
1.68,1.58,8
1.67,1.65,8
1.69,1.59,8
1.68,1.55,8
1.67,1.63,8
1.69,1.61,8
1.7,1.54,8
1.68,1.6,8
1.69,1.64,8
1.7,1.55,8
1.7,1.56,8
1.69,1.64,8
1.71,1.58,8
1.71,1.54,8
1.7,1.62,8
1.7,1.6,8
1.71,1.52,8
1.69,1.58,8
1.7,1.61,8
1.71,1.52,8
1.71,1.53,8
1.71,1.6,8
1.73,1.54,8
1.72,1.51,8
1.71,1.59,8
1.72,1.57,8
1.72,1.49,8
1.7,1.55,8
1.71,1.58,8
1.72,1.5,8
1.72,1.51,8
1.71,1.57,8
1.73,1.51,8
1.72,1.48,8
1.71,1.56,8
1.72,1.54,8
1.73,1.47,8
1.72,1.52,8
1.73,1.55,8
1.73,1.46,8
1.73,1.47,8
1.72,1.54,8
1.73,1.49,8
1.72,1.45,8
1.72,1.53,8
1.72,1.51,8
1.72,1.43,8
1.71,1.48,8
1.71,1.51,8
1.72,1.43,8
1.71,1.44,8
1.7,1.51,8
1.72,1.45,8
1.71,1.41,8
1.7,1.49,8
1.72,1.47,8
1.72,1.4,8
1.71,1.45,8
1.72,1.48,8
1.73,1.39,8
1.72,1.4,8
1.71,1.47,8
1.73,1.41,8
1.72,1.37,8
1.71,1.45,8
1.72,1.42,8
1.73,1.35,8
1.71,1.4,8
1.72,1.43,8
1.73,1.34,8
1.72,1.36,8
1.72,1.43,8
1.73,1.37,8
1.73,1.33,8
1.72,1.41,8
1.72,1.38,8
1.72,1.31,8
1.71,1.36,8
1.71,1.39,8
1.72,1.31,8
1.71,1.31,8
1.71,1.38,8
1.72,1.32,8
1.71,1.27,8
1.7,1.35,8
1.71,1.33,8
1.72,1.25,8
1.7,1.3,8
1.71,1.33,8
1.71,1.24,8
1.7,1.25,8
1.7,1.32,8
1.71,1.26,8
1.71,1.22,8
1.7,1.3,8
1.71,1.28,8
1.72,1.21,8
1.7,1.26,8
1.71,1.29,8
1.72,1.2,8
1.71,1.2,8
1.7,1.27,8
1.72,1.21,8
1.71,1.17,8
1.7,1.25,8
1.71,1.23,8
1.71,1.15,8
1.69,1.2,8
1.7,1.24,8
1.71,1.14,8
1.7,1.16,8
1.69,1.23,8
1.7,1.17,8
1.69,1.13,8
1.68,1.21,8
1.69,1.19,8
1.7,1.1,8
1.69,1.15,8
1.7,1.18,8
1.72,1.1,8
1.71,1.1,8
1.71,1.18,8
1.72,1.12,8
1.71,1.08,8
1.7,1.16,8
1.71,1.14,8
1.71,1.06,8
1.7,1.11,8
1.7,1.14,8
1.71,1.05,8
1.7,1.06,8
1.69,1.13,8
1.71,1.08,8
1.7,1.03,8
1.69,1.11,8
1.7,1.1,8
1.7,1.02,8
1.69,1.07,8
1.7,1.1,8
1.71,1.01,8
1.7,1.01,8
1.69,1.08,8
1.7,1.02,8
1.69,0.98,8
1.68,1.06,8
1.68,1.05,8
1.69,0.97,8
1.68,1.02,8
1.68,1.06,8
1.7,0.97,8
1.69,0.98,8
1.69,1.05,8
1.71,0.99,8
1.71,0.95,8
1.7,1.02,8
1.7,1.0,8
1.7,0.93,8
1.69,0.98,8
1.7,1.02,8
1.71,0.93,8
1.7,0.94,8
1.69,1.01,8
1.7,0.95,8
1.69,0.91,8
1.68,0.99,8
1.69,0.98,8
1.7,0.91,8
1.68,0.96,8
1.69,1.0,8
1.69,0.91,8
1.68,0.92,8
1.68,0.99,8
1.69,0.93,8
1.68,0.88,9
1.67,0.96,9
1.67,0.95,9
1.67,0.87,9
1.65,0.92,9
1.66,0.95,9
1.66,0.86,9
1.65,0.87,9
1.64,0.94,9
1.66,0.88,9
1.65,0.84,9
1.64,0.92,9
1.64,0.91,9
1.65,0.83,9
1.64,0.88,9
1.65,0.92,9
1.66,0.84,9
1.65,0.86,9
1.64,0.94,9
1.65,0.89,9
1.64,0.84,9
1.63,0.92,9
1.64,0.9,9
1.65,0.82,9
1.64,0.87,9
1.65,0.91,9
1.66,0.82,9
1.65,0.83,9
1.65,0.91,9
1.66,0.86,9
1.65,0.82,9
1.63,0.9,9
1.64,0.89,9
1.64,0.81,9
1.63,0.85,9
1.63,0.89,9
1.64,0.8,9
1.63,0.81,9
1.62,0.89,9
1.63,0.83,9
1.63,0.79,9
1.62,0.87,9
1.63,0.85,9
1.63,0.77,9
1.62,0.81,9
1.63,0.85,9
1.64,0.76,9
1.63,0.76,9
1.63,0.83,9
1.64,0.78,9
1.63,0.73,9
1.62,0.82,9
1.62,0.81,9
1.62,0.73,9
1.61,0.78,9
1.61,0.81,9
1.62,0.73,9
1.61,0.73,9
1.61,0.8,9
1.62,0.75,9
1.61,0.71,9
1.6,0.8,9
1.61,0.78,9
1.61,0.71,9
1.6,0.75,9
1.61,0.79,9
1.62,0.7,9
1.61,0.71,9
1.6,0.78,9
1.62,0.72,9
1.61,0.68,9
1.6,0.76,9
1.6,0.75,9
1.6,0.67,9
1.59,0.73,9
1.6,0.77,9
1.6,0.68,9
1.59,0.69,9
1.59,0.76,9
1.6,0.7,9
1.59,0.66,9
1.58,0.74,9
1.59,0.73,9
1.6,0.65,9
1.58,0.7,9
1.59,0.74,9
1.6,0.66,9
1.59,0.66,9
1.58,0.73,9
1.59,0.67,9
1.58,0.63,9
1.56,0.71,9
1.57,0.71,9
1.57,0.64,9
1.56,0.69,9
1.56,0.74,9
1.57,0.65,9
1.56,0.65,9
1.56,0.72,9
1.56,0.66,9
1.56,0.62,9
1.55,0.71,9
1.56,0.7,9
1.56,0.63,9
1.55,0.68,9
1.56,0.72,9
1.57,0.63,9
1.56,0.64,9
1.55,0.71,9
1.56,0.65,9
1.55,0.6,9
1.54,0.68,9
1.55,0.68,9
1.55,0.6,9
1.54,0.65,9
1.55,0.69,9
1.56,0.6,9
1.55,0.61,9
1.55,0.69,9
1.56,0.63,9
1.55,0.59,9
1.54,0.66,9
1.54,0.65,9
1.55,0.57,9
1.53,0.62,9
1.54,0.66,9
1.55,0.58,9
1.54,0.59,9
1.53,0.66,9
1.54,0.6,9
1.53,0.56,9
1.51,0.65,9
1.52,0.64,9
1.52,0.56,9
1.51,0.61,9
1.51,0.64,9
1.52,0.55,9
1.51,0.56,9
1.51,0.63,9
1.51,0.58,9
1.5,0.54,9
1.49,0.62,9
1.5,0.61,9
1.51,0.53,9
1.5,0.58,9
1.51,0.62,9
1.52,0.54,9
1.51,0.55,9
1.51,0.62,9
1.52,0.57,9
1.51,0.53,9
1.5,0.61,9
1.51,0.6,9
1.51,0.52,9
1.5,0.58,9
1.51,0.63,9
1.51,0.55,9
1.5,0.56,9
1.49,0.63,9
1.5,0.58,9
1.49,0.54,9
1.48,0.62,9
1.49,0.61,9
1.49,0.53,9
1.48,0.58,9
1.49,0.62,9
1.5,0.53,9
1.49,0.54,9
1.48,0.61,9
1.49,0.56,9
1.48,0.52,9
1.47,0.6,9
1.48,0.59,9
1.48,0.51,9
1.47,0.56,9
1.47,0.59,9
1.48,0.5,9
1.47,0.51,9
1.47,0.58,9
1.48,0.53,9
1.47,0.49,9
1.46,0.57,9
1.47,0.56,9
1.47,0.49,9
1.46,0.53,9
1.47,0.57,9
1.48,0.49,9
1.47,0.49,9
1.47,0.57,9
1.48,0.52,9
1.48,0.48,9
1.47,0.56,9
1.48,0.55,9
1.48,0.47,9
1.47,0.51,9
1.48,0.55,9
1.48,0.46,9
1.47,0.47,9
1.46,0.54,9
1.47,0.49,9
1.46,0.45,9
1.45,0.54,9
1.45,0.53,9
1.46,0.46,9
1.45,0.51,9
1.46,0.55,9
1.47,0.47,9
1.47,0.47,9
1.46,0.55,9
1.48,0.5,9
1.47,0.46,9
1.46,0.55,9
1.46,0.55,9
1.47,0.47,9
1.46,0.52,9
1.46,0.56,9
1.47,0.48,9
1.47,0.49,9
1.46,0.56,9
1.48,0.51,9
1.47,0.47,9
1.45,0.55,9
1.46,0.54,9
1.46,0.46,9
1.45,0.51,9
1.46,0.56,9
1.47,0.48,9
1.46,0.49,9
1.45,0.56,9
1.45,0.51,9
1.44,0.46,9
1.43,0.54,9
1.44,0.53,9
1.44,0.45,9
1.44,0.5,9
1.45,0.54,9
1.46,0.46,9
1.46,0.46,9
1.46,0.53,9
1.47,0.48,9
1.46,0.44,9
1.45,0.52,9
1.46,0.51,9
1.46,0.44,9
1.45,0.49,9
1.45,0.53,9
1.46,0.44,9
1.46,0.45,9
1.45,0.53,9
1.46,0.49,9
1.45,0.45,9
1.44,0.53,9
1.45,0.52,9
1.45,0.45,9
1.45,0.5,9
1.45,0.54,9
1.46,0.46,9
1.46,0.48,9
1.45,0.55,9
1.46,0.5,9
1.45,0.46,9
1.44,0.54,9
1.44,0.54,9
1.44,0.46,9
1.43,0.51,9
1.43,0.56,9
1.44,0.47,9
1.43,0.48,9
1.43,0.56,9
1.44,0.5,9
1.43,0.46,9
1.42,0.54,9
1.42,0.53,9
1.43,0.46,9
1.41,0.5,9
1.42,0.54,9
1.43,0.44,9
1.43,0.42,9
1.42,0.48,9
1.44,0.4,9
1.43,0.32,9
1.42,0.38,9
1.43,0.34,9
1.43,0.24,9
1.42,0.25,9
1.43,0.25,9
1.43,0.16,9
1.42,0.13,9
1.42,0.15,9
1.43,0.07,9
1.43,0.04,9
1.42,0.05,9
1.43,0.03,9
1.43,0.01,9
1.41,0.02,9
1.42,0.02,9
1.42,0.01,9
1.41,0.01,9
1.41,0.01,9
1.42,0.0,9
1.41,0.0,9
1.4,0.0,9
1.42,0.0,9
1.42,0.0,9
1.41,0.0,9
1.42,0.0,9
1.42,0.0,9
1.41,0.0,9
1.4,0.0,9
1.4,0.0,9
1.39,0.0,9
1.38,0.0,9
1.39,0.0,9
1.38,0.0,9
1.36,0.0,9
1.37,0.0,9
1.37,0.0,9
1.36,0.0,9
1.36,0.0,9
1.37,0.0,9
1.37,0.0,9
1.35,0.0,9
1.36,0.0,9
1.37,0.0,9
1.36,0.0,9
1.37,0.0,9
1.38,0.0,9
1.37,0.0,9
1.36,0.0,9
1.37,0.0,9
1.36,0.0,9
1.35,0.0,9
1.36,0.0,9
1.37,0.0,9
1.36,0.0,9
1.36,0.0,9
1.38,0.0,9
1.37,0.0,9
1.37,0.0,9
1.38,0.0,9
1.37,0.0,9
1.36,0.0,9
1.37,0.0,9
1.37,0.0,9
1.36,0.0,9
1.36,0.0,9
1.37,0.0,9
1.36,0.0,9
1.35,0.0,9
1.36,0.0,9
1.36,0.0,9
1.35,0.0,9
1.35,0.0,9
1.36,0.0,9
1.35,0.0,9
1.36,0.0,9
1.37,0.0,9
1.36,0.0,9
1.36,0.0,9
1.37,0.0,9
1.36,0.0,9
1.35,0.0,9
1.36,0.0,9
1.36,0.0,9
1.35,0.0,9
1.36,0.0,9
1.37,0.0,9
1.36,0.0,9
1.35,0.0,9
1.36,0.0,9
1.36,0.0,9
1.34,0.0,9
1.35,0.0,9
1.36,0.0,9
1.35,0.0,9
1.35,0.0,9
1.36,0.0,9
1.36,0.0,9
1.36,0.0,9
1.37,0.0,9
1.37,0.0,9
1.36,0.03,9
1.37,0.04,9
1.37,0.04,9
1.36,0.11,9
1.37,0.15,9
1.38,0.12,9
1.38,0.17,9
1.38,0.24,9
1.39,0.23,9
1.38,0.22,9
1.37,0.34,9
1.38,0.38,9
1.38,0.35,9
1.37,0.44,9
1.38,0.54,9
1.4,0.5,9
1.4,0.55,9
1.39,0.66,9
1.4,0.65,9
1.4,0.64,9
1.39,0.75,9
1.39,0.76,9
1.4,0.7,9
1.39,0.76,9
1.39,0.81,9
1.4,0.73,9
1.39,0.74,9
1.39,0.82,9
1.4,0.78,9
1.39,0.73,9
1.38,0.82,9
1.38,0.82,9
1.39,0.75,9
1.38,0.8,9
1.39,0.85,9
1.39,0.76,9
1.39,0.77,9
1.38,0.85,9
1.39,0.8,9
1.38,0.76,9
1.37,0.84,9
1.38,0.84,9
1.38,0.77,9
1.38,0.82,9
1.39,0.86,9
1.4,0.78,9
1.4,0.78,9
1.4,0.85,9
1.41,0.81,9
1.4,0.76,9
1.39,0.85,9
1.41,0.85,9
1.41,0.77,9
1.4,0.82,9
1.41,0.87,9
1.43,0.79,9
1.41,0.8,9
1.41,0.88,9
1.42,0.84,9
1.42,0.79,9
1.42,0.87,9
1.43,0.87,9
1.44,0.8,9
1.43,0.85,9
1.44,0.9,9
1.45,0.82,9
1.44,0.82,9
1.44,0.9,9
1.45,0.86,9
1.44,0.81,9
1.43,0.89,9
1.44,0.89,9
1.44,0.81,9
1.43,0.86,9
1.44,0.91,9
1.45,0.83,9
1.44,0.84,9
1.43,0.92,9
1.44,0.87,9
1.44,0.83,9
1.42,0.91,9
1.43,0.9,9
1.44,0.82,9
1.43,0.87,9
1.43,0.91,9
1.45,0.83,9
1.44,0.83,9
1.43,0.91,9
1.44,0.87,9
1.44,0.82,9
1.42,0.9,9
1.43,0.9,9
1.43,0.82,9
1.42,0.86,9
1.42,0.91,9
1.43,0.83,9
1.42,0.83,9
1.42,0.92,9
1.43,0.88,9
1.42,0.84,9
1.41,0.92,9
1.42,0.92,9
1.42,0.85,9
1.41,0.9,9
1.42,0.95,9
1.43,0.87,9
1.42,0.87,9
1.42,0.94,9
1.43,0.89,9
1.43,0.84,9
1.42,0.92,9
1.42,0.92,9
1.42,0.84,9
1.41,0.89,9
1.41,0.94,9
1.43,0.86,9
1.42,0.86,9
1.41,0.94,9
1.42,0.89,9
1.42,0.84,9
1.41,0.92,9
1.42,0.92,9
1.42,0.84,9
1.41,0.88,9
1.42,0.94,9
1.43,0.85,9
1.43,0.85,9
1.43,0.93,9
1.44,0.89,9
1.44,0.84,9
1.43,0.92,9
1.44,0.91,9
1.45,0.83,9
1.44,0.88,9
1.44,0.93,9
1.46,0.85,9
1.45,0.85,9
1.44,0.93,9
1.45,0.88,9
1.44,0.82,9
1.43,0.9,9
1.44,0.89,9
1.44,0.81,9
1.43,0.86,9
1.44,0.91,9
1.45,0.82,9
1.44,0.82,9
1.44,0.9,9
1.45,0.85,9
1.44,0.8,9
1.43,0.88,9
1.44,0.87,9
1.44,0.8,9
1.43,0.84,9
1.43,0.89,9
1.44,0.81,9
1.43,0.81,9
1.43,0.88,9
1.44,0.84,9
1.43,0.78,9
1.42,0.86,9
1.43,0.86,9
1.43,0.78,9
1.42,0.83,9
1.43,0.88,9
1.44,0.8,9
1.44,0.8,9
1.44,0.88,9
1.45,0.84,9
1.44,0.79,9
1.43,0.88,9
1.44,0.88,9
1.44,0.8,9
1.43,0.84,9
1.43,0.89,9
1.45,0.82,9
1.44,0.82,9
1.44,0.9,9
1.45,0.86,9
1.44,0.82,9
1.43,0.9,9
1.44,0.9,9
1.44,0.81,9
1.43,0.86,9
1.44,0.9,9
1.45,0.82,9
1.44,0.82,9
1.44,0.91,9
1.44,0.86,9
1.44,0.81,9
1.43,0.89,9
1.43,0.89,9
1.44,0.81,9
1.43,0.85,9
1.44,0.9,9
1.45,0.82,9
1.44,0.82,9
1.44,0.9,9
1.45,0.86,9
1.45,0.8,9
1.44,0.88,10
1.44,0.88,10
1.45,0.8,10
1.44,0.85,10
1.44,0.9,10
1.45,0.82,10
1.45,0.82,10
1.44,0.9,10
1.45,0.86,10
1.45,0.81,10
1.44,0.89,10
1.45,0.88,10
1.45,0.8,10
1.44,0.84,10
1.44,0.89,10
1.45,0.8,10
1.44,0.8,10
1.44,0.88,10
1.45,0.84,10
1.45,0.79,10
1.44,0.87,10
1.45,0.87,10
1.45,0.79,10
1.44,0.83,10
1.45,0.88,10
1.46,0.8,10
1.45,0.8,10
1.45,0.88,10
1.46,0.83,10
1.46,0.78,10
1.44,0.86,10
1.45,0.86,10
1.45,0.78,10
1.44,0.83,10
1.44,0.88,10
1.46,0.8,10
1.45,0.8,10
1.45,0.88,10
1.46,0.84,10
1.45,0.79,10
1.44,0.87,10
1.45,0.87,10
1.46,0.79,10
1.45,0.84,10
1.45,0.89,10
1.47,0.8,10
1.46,0.8,10
1.46,0.88,10
1.47,0.84,10
1.47,0.78,10
1.45,0.86,10
1.46,0.86,10
1.46,0.79,10
1.46,0.83,10
1.46,0.88,10
1.47,0.8,10
1.46,0.8,10
1.45,0.88,10
1.47,0.84,10
1.46,0.78,10
1.46,0.87,10
1.46,0.86,10
1.47,0.78,10
1.46,0.83,10
1.46,0.88,10
1.48,0.8,10
1.47,0.81,10
1.47,0.89,10
1.48,0.84,10
1.48,0.79,10
1.46,0.87,10
1.47,0.87,10
1.48,0.79,10
1.47,0.83,10
1.47,0.88,10
1.48,0.8,10
1.48,0.8,10
1.47,0.88,10
1.48,0.84,10
1.48,0.79,10
1.46,0.86,10
1.47,0.86,10
1.47,0.78,10
1.46,0.83,10
1.46,0.88,10
1.47,0.8,10
1.47,0.8,10
1.46,0.88,10
1.47,0.84,10
1.47,0.79,10
1.46,0.87,10
1.46,0.88,10
1.47,0.8,10
1.46,0.84,10
1.46,0.89,10
1.47,0.81,10
1.47,0.81,10
1.46,0.88,10
1.47,0.84,10
1.47,0.79,10
1.45,0.87,10
1.46,0.87,10
1.46,0.8,10
1.45,0.84,10
1.45,0.89,10
1.46,0.81,10
1.46,0.8,10
1.45,0.88,10
1.47,0.84,10
1.47,0.79,10
1.46,0.87,10
1.47,0.88,10
1.48,0.8,10
1.47,0.84,10
1.47,0.89,10
1.49,0.81,10
1.48,0.81,10
1.48,0.89,10
1.49,0.85,10
1.48,0.8,10
1.47,0.88,10
1.47,0.88,10
1.48,0.81,10
1.47,0.85,10
1.47,0.9,10
1.48,0.82,10
1.47,0.82,10
1.47,0.9,10
1.48,0.86,10
1.48,0.81,10
1.47,0.89,10
1.48,0.89,10
1.48,0.82,10
1.47,0.86,10
1.47,0.91,10
1.49,0.83,10
1.48,0.83,10
1.48,0.91,10
1.49,0.87,10
1.48,0.81,10
1.47,0.89,10
1.47,0.89,10
1.48,0.81,10
1.47,0.86,10
1.47,0.91,10
1.48,0.83,10
1.47,0.82,10
1.47,0.9,10
1.48,0.86,10
1.48,0.8,10
1.47,0.88,10
1.48,0.88,10
1.48,0.8,10
1.47,0.84,10
1.47,0.89,10
1.49,0.81,10
1.48,0.81,10
1.47,0.89,10
1.48,0.85,10
1.48,0.79,10
1.47,0.87,10
1.48,0.87,10
1.48,0.79,10
1.47,0.83,10
1.47,0.89,10
1.48,0.81,10
1.47,0.8,10
1.46,0.88,10
1.47,0.84,10
1.47,0.79,10
1.46,0.87,10
1.47,0.87,10
1.47,0.79,10
1.46,0.82,10
1.46,0.87,10
1.48,0.8,10
1.47,0.79,10
1.47,0.88,10
1.48,0.84,10
1.48,0.78,10
1.46,0.86,10
1.47,0.86,10
1.48,0.78,10
1.47,0.82,10
1.47,0.88,10
1.49,0.81,10
1.48,0.81,10
1.48,0.89,10
1.49,0.85,10
1.49,0.79,10
1.47,0.87,10
1.48,0.87,10
1.49,0.79,10
1.48,0.82,10
1.49,0.88,10
1.5,0.8,10
1.5,0.8,10
1.49,0.88,10
1.51,0.84,10
1.5,0.79,10
1.49,0.87,10
1.49,0.87,10
1.5,0.79,10
1.49,0.84,10
1.49,0.89,10
1.5,0.81,10
1.5,0.81,10
1.49,0.89,10
1.5,0.85,10
1.5,0.8,10
1.49,0.88,10
1.5,0.88,10
1.5,0.8,10
1.49,0.84,10
1.49,0.9,10
1.5,0.82,10
1.49,0.82,10
1.49,0.89,10
1.5,0.85,10
1.49,0.79,10
1.48,0.86,10
1.48,0.86,10
1.48,0.78,10
1.48,0.81,10
1.48,0.86,10
1.49,0.77,10
1.48,0.74,10
1.47,0.8,10
1.48,0.73,10
1.47,0.65,10
1.46,0.69,10
1.46,0.66,10
1.46,0.55,10
1.46,0.55,10
1.46,0.56,10
1.47,0.45,10
1.46,0.42,10
1.46,0.46,10
1.47,0.4,10
1.47,0.32,10
1.45,0.37,10
1.46,0.35,10
1.46,0.26,10
1.45,0.28,10
1.45,0.32,10
1.47,0.22,10
1.46,0.21,10
1.46,0.28,10
1.47,0.23,10
1.47,0.18,10
1.46,0.27,10
1.46,0.28,10
1.47,0.21,10
1.46,0.26,10
1.46,0.32,10
1.47,0.24,10
1.47,0.24,10
1.47,0.33,10
1.48,0.3,10
1.48,0.26,10
1.46,0.34,10
1.47,0.35,10
1.47,0.28,10
1.45,0.32,10
1.45,0.38,10
1.47,0.31,10
1.46,0.32,10
1.46,0.4,10
1.47,0.37,10
1.47,0.32,10
1.45,0.38,10
1.47,0.36,10
1.47,0.27,10
1.46,0.28,10
1.47,0.31,10
1.49,0.22,10
1.47,0.19,10
1.47,0.23,10
1.48,0.16,10
1.48,0.09,10
1.46,0.14,10
1.46,0.12,10
1.47,0.07,10
1.46,0.09,10
1.46,0.1,10
1.48,0.05,10
1.47,0.04,10
1.46,0.06,10
1.47,0.02,10
1.47,0.02,10
1.46,0.05,10
1.47,0.04,10
1.47,0.03,10
1.46,0.06,10
1.46,0.07,10
1.47,0.04,10
1.46,0.04,10
1.46,0.06,10
1.47,0.03,10
1.47,0.02,10
1.45,0.06,10
1.45,0.07,10
1.46,0.06,10
1.45,0.1,10
1.45,0.12,10
1.47,0.08,10
1.46,0.08,10
1.46,0.12,10
1.46,0.09,10
1.47,0.07,10
1.45,0.12,10
1.46,0.13,10
1.46,0.1,10
1.45,0.14,10
1.45,0.18,10
1.46,0.13,10
1.46,0.13,10
1.46,0.18,10
1.47,0.14,10
1.47,0.11,10
1.46,0.17,10
1.46,0.18,10
1.47,0.13,10
1.46,0.18,10
1.46,0.24,10
1.48,0.17,10
1.47,0.18,10
1.46,0.24,10
1.48,0.2,10
1.48,0.16,10
1.46,0.24,10
1.47,0.25,10
1.48,0.19,10
1.46,0.24,10
1.47,0.3,10
1.48,0.23,10
1.47,0.22,10
1.47,0.3,10
1.47,0.26,10
1.47,0.2,10
1.46,0.29,10
1.47,0.31,10
1.48,0.25,10
1.47,0.32,10
1.48,0.41,10
1.49,0.38,10
1.48,0.42,10
1.48,0.54,10
1.49,0.54,10
1.48,0.53,10
1.47,0.66,10
1.48,0.71,10
1.48,0.68,10
1.47,0.77,10
1.48,0.88,10
1.49,0.85,10
1.48,0.89,10
1.47,1.01,10
1.48,1.02,10
1.48,1.0,10
1.47,1.12,10
1.48,1.16,10
1.49,1.12,10
1.48,1.19,10
1.47,1.27,10
1.49,1.21,10
1.48,1.23,10
1.47,1.32,10
1.48,1.29,10
1.48,1.24,10
1.46,1.32,10
1.47,1.33,10
1.48,1.25,10
1.47,1.29,10
1.47,1.35,10
1.49,1.28,10
1.48,1.28,10
1.48,1.36,10
1.48,1.32,10
1.48,1.28,10
1.47,1.36,10
1.47,1.37,10
1.48,1.3,10
1.47,1.34,10
1.46,1.39,10
1.47,1.32,10
1.46,1.31,10
1.45,1.4,10
1.46,1.36,10
1.46,1.31,10
1.45,1.39,10
1.46,1.4,10
1.46,1.32,10
1.45,1.35,10
1.45,1.41,10
1.47,1.32,10
1.46,1.32,10
1.46,1.39,10
1.47,1.36,10
1.47,1.31,10
1.46,1.39,10
1.46,1.39,10
1.47,1.31,10
1.46,1.35,10
1.45,1.41,10
1.47,1.33,10
1.47,1.33,10
1.46,1.42,10
1.48,1.39,10
1.49,1.34,10
1.48,1.42,10
1.49,1.42,10
1.49,1.34,10
1.48,1.38,10
1.48,1.44,10
1.49,1.36,10
1.48,1.36,10
1.47,1.44,10
1.48,1.41,10
1.48,1.36,10
1.46,1.44,10
1.47,1.45,10
1.47,1.37,10
1.46,1.41,10
1.46,1.46,10
1.47,1.38,10
1.47,1.37,10
1.46,1.45,10
1.47,1.41,10
1.47,1.36,10
1.45,1.44,10
1.46,1.44,10
1.47,1.36,10
1.46,1.39,10
1.46,1.44,10
1.48,1.37,10
1.47,1.36,10
1.46,1.44,10
1.47,1.41,10
1.47,1.36,10
1.46,1.44,10
1.46,1.44,10
1.47,1.36,10
1.46,1.4,10
1.46,1.45,10
1.48,1.37,10
1.47,1.37,10
1.47,1.45,10
1.48,1.41,10
1.48,1.35,10
1.46,1.42,10
1.47,1.43,10
1.47,1.35,10
1.46,1.39,10
1.46,1.45,10
1.48,1.37,10
1.48,1.36,10
1.48,1.44,10
1.49,1.4,10
1.5,1.34,10
1.48,1.42,10
1.49,1.43,10
1.49,1.35,10
1.48,1.4,10
1.48,1.45,10
1.49,1.37,10
1.49,1.36,10
1.48,1.44,10
1.49,1.4,10
1.5,1.34,10
1.48,1.42,10
1.48,1.43,10
1.49,1.34,10
1.48,1.38,10
1.48,1.43,10
1.5,1.35,10
1.5,1.35,10
1.49,1.44,10
1.5,1.4,10
1.5,1.35,10
1.48,1.43,10
1.49,1.43,10
1.5,1.35,10
1.48,1.38,10
1.48,1.44,10
1.5,1.36,10
1.49,1.35,10
1.49,1.43,10
1.5,1.39,10
1.5,1.33,10
1.48,1.41,10
1.49,1.41,10
1.49,1.34,10
1.48,1.37,10
1.48,1.43,10
1.49,1.35,10
1.48,1.35,10
1.48,1.43,10
1.49,1.39,10
1.49,1.34,10
1.47,1.41,10
1.48,1.42,10
1.48,1.34,10
1.47,1.37,10
1.47,1.43,10
1.48,1.34,10
1.48,1.33,10
1.47,1.41,10
1.48,1.37,10
1.48,1.31,10
1.46,1.39,10
1.47,1.4,10
1.48,1.32,10
1.47,1.35,10
1.47,1.41,10
1.48,1.33,10
1.48,1.32,10
1.47,1.4,10
1.48,1.36,10
1.48,1.3,10
1.47,1.38,10
1.47,1.38,10
1.48,1.3,10
1.48,1.34,10
1.48,1.39,10
1.5,1.31,10
1.5,1.3,10
1.49,1.38,10
1.5,1.34,10
1.5,1.28,10
1.48,1.35,10
1.48,1.35,10
1.49,1.27,10
1.48,1.31,10
1.48,1.36,10
1.49,1.28,10
1.48,1.27,10
1.48,1.35,10
1.49,1.3,10
1.49,1.24,10
1.47,1.31,10
1.48,1.31,10
1.48,1.23,10
1.47,1.26,10
1.47,1.32,10
1.48,1.24,10
1.48,1.23,10
1.47,1.31,10
1.49,1.27,10
1.49,1.21,10
1.48,1.29,10
1.48,1.3,10
1.49,1.22,10
1.48,1.25,10
1.48,1.31,10
1.5,1.23,10
1.49,1.22,10
1.49,1.29,10
1.5,1.24,10
1.5,1.19,10
1.49,1.26,10
1.5,1.27,10
1.5,1.18,10
1.5,1.22,10
1.5,1.27,10
1.52,1.18,10
1.51,1.17,10
1.5,1.25,10
1.51,1.2,10
1.52,1.15,10
1.5,1.22,10
1.51,1.23,10
1.51,1.15,10
1.5,1.18,10
1.5,1.24,11
1.52,1.15,11
1.51,1.15,11
1.5,1.23,11
1.51,1.18,11
1.51,1.12,11
1.49,1.2,11
1.5,1.2,11
1.5,1.12,11
1.49,1.16,11
1.49,1.21,11
1.51,1.13,11
1.5,1.12,11
1.5,1.19,11
1.51,1.15,11
1.51,1.09,11
1.49,1.17,11
1.5,1.17,11
1.51,1.09,11
1.5,1.13,11
1.5,1.18,11
1.52,1.1,11
1.51,1.09,11
1.51,1.17,11
1.52,1.12,11
1.51,1.06,11
1.5,1.14,11
1.51,1.15,11
1.51,1.06,11
1.51,1.11,11
1.51,1.16,11
1.52,1.08,11
1.52,1.07,11
1.51,1.14,11
1.52,1.1,11
1.52,1.03,11
1.5,1.11,11
1.51,1.11,11
1.51,1.03,11
1.5,1.07,11
1.51,1.12,11
1.53,1.04,11
1.52,1.03,11
1.52,1.11,11
1.54,1.06,11
1.54,1.0,11
1.52,1.07,11
1.52,1.07,11
1.52,0.99,11
1.51,1.03,11
1.51,1.08,11
1.53,1.0,11
1.53,1.0,11
1.52,1.08,11
1.53,1.03,11
1.53,0.96,11
1.52,1.04,11
1.52,1.04,11
1.52,0.96,11
1.52,1.0,11
1.52,1.06,11
1.53,0.98,11
1.53,0.97,11
1.52,1.05,11
1.54,1.0,11
1.53,0.95,11
1.52,1.03,11
1.53,1.03,11
1.53,0.95,11
1.52,0.99,11
1.52,1.04,11
1.53,0.96,11
1.53,0.95,11
1.52,1.03,11
1.54,0.99,11
1.54,0.92,11
1.53,1.0,11
1.53,1.0,11
1.54,0.91,11
1.53,0.95,11
1.53,1.01,11
1.55,0.93,11
1.54,0.92,11
1.53,1.0,11
1.54,0.95,11
1.54,0.89,11
1.53,0.96,11
1.54,0.97,11
1.55,0.89,11
1.54,0.93,11
1.54,0.99,11
1.55,0.91,11
1.55,0.91,11
1.55,0.98,11
1.56,0.94,11
1.56,0.89,11
1.55,0.96,11
1.56,0.97,11
1.57,0.88,11
1.55,0.92,11
1.55,0.97,11
1.57,0.9,11
1.56,0.89,11
1.55,0.97,11
1.56,0.93,11
1.56,0.88,11
1.55,0.95,11
1.55,0.95,11
1.55,0.87,11
1.54,0.91,11
1.54,0.96,11
1.56,0.89,11
1.55,0.89,11
1.55,0.97,11
1.55,0.93,11
1.55,0.87,11
1.54,0.94,11
1.55,0.94,11
1.56,0.86,11
1.55,0.9,11
1.55,0.96,11
1.56,0.87,11
1.56,0.87,11
1.55,0.95,11
1.56,0.9,11
1.56,0.84,11
1.55,0.92,11
1.55,0.92,11
1.55,0.84,11
1.54,0.88,11
1.54,0.93,11
1.56,0.85,11
1.55,0.84,11
1.55,0.92,11
1.56,0.87,11
1.56,0.82,11
1.54,0.9,11
1.55,0.9,11
1.56,0.82,11
1.55,0.86,11
1.55,0.92,11
1.57,0.83,11
1.57,0.83,11
1.56,0.9,11
1.58,0.86,11
1.57,0.8,11
1.56,0.88,11
1.57,0.88,11
1.57,0.8,11
1.56,0.84,11
1.56,0.89,11
1.58,0.81,11
1.57,0.81,11
1.57,0.88,11
1.58,0.84,11
1.57,0.79,11
1.56,0.87,11
1.56,0.87,11
1.57,0.79,11
1.56,0.83,11
1.56,0.88,11
1.58,0.79,11
1.57,0.79,11
1.57,0.87,11
1.58,0.82,11
1.58,0.77,11
1.56,0.86,11
1.57,0.86,11
1.57,0.78,11
1.56,0.82,11
1.56,0.87,11
1.57,0.79,11
1.56,0.79,11
1.56,0.86,11
1.57,0.82,11
1.57,0.77,11
1.56,0.84,11
1.56,0.84,11
1.57,0.77,11
1.56,0.81,11
1.56,0.86,11
1.58,0.78,11
1.57,0.78,11
1.56,0.86,11
1.58,0.82,11
1.57,0.77,11
1.55,0.85,11
1.56,0.84,11
1.57,0.76,11
1.56,0.8,11
1.56,0.85,11
1.58,0.77,11
1.57,0.77,11
1.56,0.84,11
1.58,0.79,11
1.57,0.73,11
1.56,0.81,11
1.57,0.81,11
1.58,0.73,11
1.56,0.77,11
1.57,0.82,11
1.58,0.74,11
1.58,0.74,11
1.57,0.81,11
1.59,0.76,11
1.59,0.71,11
1.57,0.79,11
1.58,0.79,11
1.58,0.71,11
1.57,0.75,11
1.57,0.8,11
1.58,0.72,11
1.57,0.71,11
1.57,0.79,11
1.57,0.75,11
1.57,0.69,11
1.55,0.77,11
1.56,0.78,11
1.57,0.7,11
1.57,0.74,11
1.57,0.79,11
1.59,0.71,11
1.58,0.71,11
1.57,0.78,11
1.58,0.74,11
1.58,0.69,11
1.57,0.77,11
1.58,0.78,11
1.58,0.71,11
1.57,0.75,11
1.57,0.8,11
1.59,0.72,11
1.58,0.72,11
1.57,0.8,11
1.58,0.76,11
1.58,0.7,11
1.57,0.78,11
1.57,0.78,11
1.58,0.7,11
1.57,0.74,11
1.57,0.79,11
1.59,0.71,11
1.58,0.7,11
1.57,0.78,11
1.59,0.73,11
1.58,0.68,11
1.57,0.76,11
1.57,0.76,11
1.58,0.69,11
1.56,0.72,11
1.57,0.77,11
1.59,0.68,11
1.58,0.67,11
1.58,0.73,11
1.59,0.69,11
1.59,0.63,11
1.57,0.71,11
1.58,0.7,11
1.59,0.62,11
1.57,0.65,11
1.58,0.69,11
1.6,0.61,11
1.59,0.61,11
1.59,0.68,11
1.6,0.64,11
1.6,0.6,11
1.59,0.67,11
1.6,0.67,11
1.6,0.59,11
1.59,0.63,11
1.59,0.68,11
1.61,0.6,11
1.6,0.6,11
1.59,0.68,11
1.6,0.63,11
1.59,0.58,11
1.58,0.66,11
1.59,0.66,11
1.59,0.58,11
1.58,0.61,11
1.58,0.65,11
1.6,0.57,11
1.58,0.57,11
1.58,0.64,11
1.59,0.6,11
1.59,0.55,11
1.58,0.63,11
1.59,0.62,11
1.59,0.54,11
1.58,0.58,11
1.58,0.63,11
1.6,0.55,11
1.59,0.55,11
1.59,0.63,11
1.6,0.59,11
1.6,0.54,11
1.58,0.61,11
1.58,0.59,11
1.59,0.5,11
1.57,0.52,11
1.58,0.54,11
1.6,0.43,11
1.59,0.4,11
1.59,0.45,11
1.6,0.38,11
1.59,0.3,11
1.58,0.35,11
1.59,0.32,11
1.6,0.23,11
1.59,0.26,11
1.59,0.28,11
1.61,0.2,11
1.6,0.19,11
1.59,0.25,11
1.6,0.2,11
1.6,0.16,11
1.58,0.23,11
1.59,0.24,11
1.59,0.19,11
1.57,0.25,11
1.57,0.3,11
1.59,0.22,11
1.57,0.22,11
1.57,0.28,11
1.58,0.22,11
1.57,0.17,11
1.55,0.22,11
1.56,0.2,11
1.57,0.14,11
1.56,0.15,11
1.56,0.15,11
1.58,0.09,11
1.57,0.06,11
1.56,0.06,11
1.57,0.01,11
1.56,0.0,11
1.54,0.01,11
1.55,0.0,11
1.55,0.0,11
1.54,0.0,11
1.55,0.0,11
1.57,0.0,11
1.56,0.0,11
1.56,0.0,11
1.56,0.0,11
1.55,0.0,11
1.53,0.0,11
1.54,0.0,11
1.54,0.0,11
1.52,0.0,11
1.53,0.0,11
1.54,0.0,11
1.53,0.0,11
1.53,0.0,11
1.54,0.0,11
1.53,0.0,11
1.52,0.0,11
1.53,0.0,11
1.53,0.0,11
1.52,0.0,11
1.53,0.0,11
1.54,0.0,11
1.53,0.0,11
1.52,0.0,11
1.53,0.0,11
1.53,0.0,11
1.52,0.0,11
1.52,0.0,11
1.53,0.0,11
1.52,0.0,11
1.52,0.0,11
1.53,0.0,11
1.53,0.0,11
1.53,0.0,11
1.54,0.0,11
1.54,0.0,11
1.53,0.0,11
1.54,0.0,11
1.54,0.0,11
1.53,0.01,11
1.54,0.01,11
1.55,0.01,11
1.54,0.01,11
1.53,0.01,11
1.54,0.0,11
1.53,0.0,11
1.52,0.0,11
1.52,0.0,11
1.53,0.0,11
1.52,0.01,11
1.53,0.01,11
1.54,0.01,11
1.55,0.01,11
1.54,0.01,11
1.56,0.0,11
1.56,0.0,11
1.55,0.0,11
1.56,0.0,11
1.57,0.0,11
1.55,0.0,11
1.56,0.0,11
1.58,0.0,11
1.57,0.0,11
1.56,0.0,11
1.58,0.0,11
1.57,0.0,11
1.56,0.0,11
1.57,0.0,11
1.58,0.0,11
1.57,0.01,11
1.58,0.01,11
1.59,0.01,11
1.59,0.01,11
1.58,0.01,11
1.6,0.0,11
1.59,0.0,11
1.58,0.0,11
1.59,0.0,11
1.6,0.0,11
1.59,0.02,11
1.59,0.02,11
1.6,0.02,11
1.59,0.02,11
1.58,0.02,11
1.59,0.0,11
1.58,0.0,11
1.56,0.01,11
1.57,0.01,11
1.58,0.01,11
1.56,0.03,11
1.57,0.03,11
1.59,0.02,11
1.58,0.02,11
1.57,0.02,11
1.58,0.0,11
1.58,0.0,11
1.57,0.03,11
1.58,0.03,11
1.6,0.03,11
1.59,0.08,11
1.59,0.11,11
1.61,0.08,11
1.6,0.12,11
1.59,0.17,11
1.61,0.14,11
1.6,0.13,11
1.58,0.22,11
1.59,0.25,11
1.59,0.22,11
1.57,0.31,11
1.58,0.39,11
1.59,0.35,11
1.58,0.39,11
1.58,0.51,11
1.59,0.5,11
1.58,0.51,11
1.57,0.63,11
1.58,0.67,11
1.59,0.64,11
1.58,0.73,11
1.58,0.81,11
1.6,0.76,11
1.59,0.79,11
1.59,0.89,11
1.6,0.86,11
1.59,0.83,11
1.58,0.93,11
1.58,0.93,11
1.58,0.87,11
1.57,0.93,11
1.58,0.98,11
1.59,0.9,11
1.58,0.92,11
1.57,0.99,11
1.59,0.94,11
1.58,0.9,11
1.57,0.98,11
1.58,0.97,11
1.59,0.9,11
1.57,0.95,11
1.59,0.99,11
1.6,0.91,11
1.59,0.92,11
1.58,1.0,11
1.59,0.95,11
1.58,0.91,11
1.56,0.99,11
1.57,0.98,11
1.58,0.91,11
1.57,0.96,11
1.58,0.99,11
1.59,0.92,11
1.58,0.93,11
1.57,1.0,11
1.59,0.95,11
1.58,0.91,11
1.57,1.0,11
1.58,0.99,11
1.58,0.92,11
1.56,0.97,11
1.57,1.01,11
1.58,0.93,11
1.57,0.94,11
1.58,1.01,11
1.59,0.96,11
1.58,0.93,11
1.57,1.01,11
1.58,1.0,11
1.58,0.93,11
1.56,0.98,11
1.57,1.02,11
1.58,0.94,11
1.57,0.96,11
1.56,1.03,11
1.58,0.97,11
1.57,0.93,11
1.56,1.02,11
1.57,1.01,11
1.58,0.94,11
1.56,0.99,11
1.57,1.02,11
1.58,0.95,11
1.57,0.96,11
1.57,1.03,11
1.58,0.98,11
1.57,0.94,11
1.55,1.01,11
1.56,1.0,11
1.56,0.93,11
1.55,0.98,11
1.56,1.02,11
1.57,0.95,11
1.56,0.96,11
1.56,1.03,11
1.58,0.98,11
1.57,0.94,11
1.56,1.02,11
1.57,1.01,11
1.58,0.93,11
1.56,0.99,11
1.57,1.02,11
1.58,0.94,11
1.57,0.96,11
1.57,1.03,11
1.58,0.98,11
1.57,0.94,11
1.56,1.01,11
1.57,1.0,11
1.57,0.92,11
1.56,0.97,11
1.56,1.01,11
1.57,0.93,11
1.56,0.94,11
1.55,1.01,11
1.57,0.96,11
1.56,0.92,11
1.55,1.0,11
1.55,0.98,11
1.56,0.9,11
1.55,0.96,11
1.56,0.99,11
1.57,0.91,11
1.56,0.92,11
1.55,1.0,11
1.57,0.94,11
1.56,0.9,11
1.55,0.99,11
1.56,0.97,11
1.57,0.9,11
1.55,0.95,11
1.56,0.99,11
1.56,0.9,11
1.55,0.92,11
1.55,0.99,11
1.56,0.94,11
1.55,0.9,11
1.54,0.98,11
1.55,0.96,11
1.56,0.89,11
1.54,0.94,11
1.55,0.97,11
1.56,0.89,11
1.55,0.9,11
1.55,0.97,11
1.57,0.92,11
1.55,0.88,11
1.54,0.96,11
1.55,0.95,11
1.55,0.88,11
1.54,0.93,11
1.54,0.96,11
1.55,0.88,11
1.54,0.89,11
1.53,0.96,11
1.55,0.91,11
1.54,0.87,11
1.53,0.95,11
1.54,0.93,11
1.54,0.86,11
1.52,0.91,11
1.53,0.95,11
1.54,0.87,11
1.53,0.88,11
1.53,0.95,11
1.54,0.89,11
1.53,0.85,11
1.52,0.93,11
1.53,0.91,11
1.54,0.84,11
1.52,0.89,11
1.53,0.93,11
1.54,0.85,11
1.53,0.87,11
1.52,0.94,11
1.54,0.89,11
1.53,0.84,11
1.52,0.93,11
1.53,0.91,11
1.53,0.84,11
1.52,0.89,11
1.53,0.93,11
1.54,0.85,11
1.53,0.87,12
1.52,0.94,12
1.54,0.88,12
1.53,0.84,12
1.52,0.93,12
1.53,0.91,12
1.53,0.84,12
1.52,0.89,12
1.53,0.93,12
1.54,0.84,12
1.53,0.86,12
1.53,0.93,12
1.54,0.87,12
1.53,0.83,12
1.52,0.91,12
1.53,0.9,12
1.53,0.83,12
1.51,0.88,12
1.52,0.92,12
1.53,0.83,12
1.52,0.84,12
1.51,0.91,12
1.53,0.85,12
1.52,0.81,12
1.51,0.9,12
1.53,0.88,12
1.54,0.81,12
1.52,0.87,12
1.54,0.9,12
1.55,0.81,12
1.54,0.82,12
1.54,0.89,12
1.56,0.84,12
1.55,0.79,12
1.53,0.86,12
1.53,0.85,12
1.54,0.78,12
1.52,0.84,12
1.53,0.88,12
1.54,0.81,12
1.53,0.82,12
1.53,0.88,12
1.54,0.83,12
1.53,0.79,12
1.52,0.87,12
1.53,0.85,12
1.53,0.77,12
1.52,0.83,12
1.53,0.86,12
1.54,0.78,12
1.52,0.8,12
1.52,0.87,12
1.54,0.82,12
1.53,0.79,12
1.52,0.87,12
1.53,0.85,12
1.54,0.77,12
1.52,0.83,12
1.52,0.86,12
1.54,0.78,12
1.53,0.8,12
1.52,0.87,12
1.54,0.81,12
1.53,0.78,12
1.52,0.86,12
1.53,0.84,12
1.54,0.77,12
1.52,0.83,12
1.53,0.86,12
1.54,0.77,12
1.53,0.79,12
1.52,0.86,12
1.54,0.81,12
1.53,0.78,12
1.52,0.87,12
1.53,0.86,12
1.54,0.8,12
1.52,0.85,12
1.53,0.88,12
1.54,0.79,12
1.53,0.8,12
1.52,0.87,12
1.54,0.82,12
1.53,0.79,12
1.52,0.88,12
1.53,0.86,12
1.54,0.8,12
1.51,0.86,12
1.52,0.89,12
1.53,0.81,12
1.51,0.83,12
1.51,0.89,12
1.53,0.83,12
1.52,0.8,12
1.52,0.88,12
1.53,0.87,12
1.53,0.8,12
1.51,0.86,12
1.52,0.89,12
1.53,0.81,12
1.51,0.82,12
1.51,0.89,12
1.53,0.83,12
1.52,0.8,12
1.51,0.88,12
1.52,0.86,12
1.53,0.79,12
1.51,0.85,12
1.52,0.88,12
1.53,0.8,12
1.52,0.82,12
1.52,0.89,12
1.54,0.83,12
1.53,0.8,12
1.51,0.88,12
1.52,0.86,12
1.52,0.8,12
1.51,0.86,12
1.51,0.89,12
1.53,0.8,12
1.52,0.82,12
1.51,0.89,12
1.53,0.83,12
1.52,0.8,12
1.51,0.88,12
1.52,0.86,12
1.52,0.79,12
1.5,0.85,12
1.51,0.88,12
1.52,0.8,12
1.51,0.82,12
1.5,0.88,12
1.52,0.82,12
1.51,0.79,12
1.5,0.87,12
1.51,0.85,12
1.52,0.79,12
1.5,0.84,12
1.51,0.87,12
1.51,0.79,12
1.5,0.82,12
1.5,0.88,12
1.52,0.83,12
1.51,0.79,12
1.5,0.87,12
1.52,0.84,12
1.52,0.77,12
1.51,0.83,12
1.52,0.86,12
1.53,0.78,12
1.52,0.8,12
1.52,0.86,12
1.54,0.8,12
1.54,0.78,12
1.53,0.85,12
1.54,0.83,12
1.55,0.76,12
1.53,0.82,12
1.54,0.84,12
1.54,0.76,12
1.53,0.79,12
1.52,0.85,12
1.54,0.79,12
1.53,0.77,12
1.52,0.85,12
1.53,0.83,12
1.53,0.77,12
1.51,0.82,12
1.52,0.85,12
1.53,0.77,12
1.52,0.79,12
1.51,0.86,12
1.53,0.8,12
1.53,0.78,12
1.52,0.85,12
1.53,0.83,12
1.54,0.76,12
1.52,0.81,12
1.52,0.84,12
1.53,0.76,12
1.52,0.78,12
1.51,0.85,12
1.54,0.78,12
1.53,0.76,12
1.52,0.84,12
1.54,0.81,12
1.55,0.75,12
1.53,0.81,12
1.54,0.84,12
1.54,0.76,12
1.54,0.79,12
1.53,0.85,12
1.55,0.78,12
1.54,0.76,12
1.54,0.83,12
1.55,0.81,12
1.56,0.74,12
1.54,0.81,12
1.55,0.84,12
1.55,0.76,12
1.54,0.78,12
1.53,0.84,12
1.55,0.77,12
1.55,0.75,12
1.54,0.83,12
1.55,0.8,12
1.55,0.74,12
1.53,0.8,12
1.54,0.83,12
1.54,0.75,12
1.54,0.78,12
1.53,0.85,12
1.55,0.78,12
1.54,0.76,12
1.53,0.83,12
1.54,0.81,12
1.54,0.74,12
1.52,0.81,12
1.53,0.83,12
1.54,0.75,12
1.53,0.77,12
1.52,0.83,12
1.54,0.77,12
1.54,0.74,12
1.53,0.83,12
1.54,0.81,12
1.54,0.74,12
1.52,0.81,12
1.53,0.83,12
1.54,0.74,12
1.52,0.76,12
1.52,0.82,12
1.53,0.75,12
1.52,0.73,12
1.52,0.82,12
1.52,0.8,12
1.53,0.73,12
1.52,0.8,12
1.53,0.82,12
1.54,0.73,12
1.54,0.76,12
1.53,0.83,12
1.56,0.76,12
1.55,0.74,12
1.55,0.82,12
1.56,0.79,12
1.56,0.73,12
1.54,0.8,12
1.55,0.81,12
1.55,0.72,12
1.54,0.75,12
1.54,0.81,12
1.55,0.74,12
1.55,0.73,12
1.54,0.81,12
1.55,0.78,12
1.56,0.71,12
1.54,0.78,12
1.54,0.79,12
1.55,0.71,12
1.54,0.74,12
1.54,0.8,12
1.56,0.73,12
1.55,0.71,12
1.54,0.79,12
1.55,0.76,12
1.55,0.7,12
1.53,0.77,12
1.53,0.79,12
1.54,0.71,12
1.53,0.74,12
1.53,0.8,12
1.55,0.73,12
1.54,0.72,12
1.53,0.79,12
1.54,0.77,12
1.55,0.7,12
1.52,0.77,12
1.53,0.78,12
1.54,0.71,12
1.53,0.73,12
1.53,0.8,12
1.55,0.73,12
1.54,0.72,12
1.54,0.8,12
1.55,0.77,12
1.55,0.7,12
1.54,0.77,12
1.54,0.79,12
1.55,0.7,12
1.54,0.73,12
1.54,0.79,12
1.56,0.73,12
1.55,0.71,12
1.55,0.78,12
1.56,0.74,12
1.56,0.66,12
1.54,0.7,12
1.55,0.68,12
1.56,0.56,12
1.55,0.54,12
1.54,0.56,12
1.56,0.44,12
1.56,0.39,12
1.55,0.43,12
1.56,0.37,12
1.57,0.27,12
1.55,0.31,12
1.56,0.29,12
1.56,0.21,12
1.56,0.2,12
1.55,0.23,12
1.57,0.15,12
1.57,0.12,12
1.57,0.15,12
1.57,0.11,12
1.58,0.07,12
1.56,0.11,12
1.55,0.1,12
1.55,0.07,12
1.54,0.08,12
1.53,0.09,12
1.55,0.04,12
1.54,0.03,12
1.53,0.04,12
1.54,0.01,12
1.54,0.01,12
1.52,0.02,12
1.53,0.02,12
1.54,0.02,12
1.52,0.04,12
1.52,0.04,12
1.53,0.02,12
1.52,0.02,12
1.52,0.02,12
1.53,0.0,12
1.53,0.0,12
1.51,0.01,12
1.51,0.01,12
1.51,0.01,12
1.5,0.01,12
1.49,0.01,12
1.51,0.0,12
1.51,0.0,12
1.5,0.0,12
1.51,0.0,12
1.52,0.0,12
1.5,0.0,12
1.51,0.0,12
1.51,0.0,12
1.51,0.0,12
1.5,0.0,12
1.52,0.0,12
1.52,0.0,12
1.51,0.0,12
1.52,0.0,12
1.53,0.0,12
1.51,0.01,12
1.51,0.01,12
1.52,0.01,12
1.51,0.03,12
1.5,0.03,12
1.52,0.01,12
1.51,0.01,12
1.51,0.02,12
1.52,0.0,12
1.52,0.0,12
1.51,0.04,12
1.51,0.04,12
1.52,0.04,12
1.51,0.06,12
1.51,0.07,12
1.53,0.03,12
1.52,0.03,12
1.52,0.04,12
1.53,0.02,12
1.53,0.01,12
1.51,0.04,12
1.52,0.04,12
1.52,0.03,12
1.51,0.06,12
1.51,0.07,12
1.53,0.05,12
1.52,0.04,12
1.52,0.06,12
1.53,0.03,12
1.53,0.01,12
1.51,0.05,12
1.52,0.06,12
1.53,0.04,12
1.52,0.08,12
1.51,0.1,12
1.53,0.06,12
1.52,0.06,12
1.52,0.08,12
1.53,0.06,12
1.54,0.04,12
1.52,0.1,12
1.53,0.13,12
1.54,0.11,12
1.52,0.17,12
1.52,0.23,12
1.54,0.19,12
1.54,0.23,12
1.54,0.32,12
1.55,0.33,12
1.56,0.32,12
1.54,0.43,12
1.55,0.48,12
1.56,0.45,12
1.55,0.53,12
1.54,0.64,12
1.56,0.61,12
1.56,0.64,12
1.55,0.77,12
1.56,0.78,12
1.57,0.76,12
1.54,0.87,12
1.55,0.92,12
1.55,0.87,12
1.54,0.93,12
1.54,1.0,12
1.56,0.94,12
1.55,0.95,12
1.54,1.03,12
1.55,1.0,12
1.55,0.95,12
1.53,1.02,12
1.53,1.03,12
1.55,0.96,12
1.54,1.0,12
1.54,1.06,12
1.56,0.99,12
1.55,0.99,12
1.54,1.07,12
1.56,1.04,12
1.56,0.99,12
1.54,1.06,12
1.55,1.07,12
1.56,0.99,12
1.54,1.03,12
1.54,1.08,12
1.56,1.01,12
1.56,1.0,12
1.55,1.08,12
1.57,1.05,12
1.57,1.0,12
1.55,1.08,12
1.55,1.09,12
1.56,1.01,12
1.55,1.04,12
1.55,1.09,12
1.57,1.01,12
1.56,1.01,12
1.56,1.09,12
1.57,1.06,12
1.57,1.0,12
1.56,1.07,12
1.56,1.07,12
1.57,0.99,12
1.55,1.03,12
1.55,1.09,12
1.57,1.02,12
1.57,1.02,12
1.56,1.1,12
1.58,1.06,12
1.58,1.01,12
1.56,1.09,12
1.57,1.1,12
1.57,1.02,12
1.56,1.06,12
1.56,1.12,12
1.58,1.04,12
1.57,1.04,12
1.56,1.11,12
1.57,1.07,12
1.57,1.02,12
1.55,1.1,12
1.56,1.1,12
1.56,1.02,12
1.55,1.06,12
1.55,1.12,12
1.57,1.04,12
1.56,1.03,12
1.55,1.11,12
1.56,1.07,12
1.56,1.02,12
1.55,1.09,12
1.55,1.1,12
1.56,1.02,12
1.55,1.06,12
1.55,1.11,12
1.56,1.03,12
1.56,1.03,12
1.55,1.11,12
1.56,1.07,12
1.56,1.02,12
1.55,1.09,12
1.55,1.09,12
1.56,1.01,12
1.55,1.05,12
1.54,1.1,12
1.56,1.02,12
1.55,1.02,12
1.54,1.09,12
1.56,1.05,12
1.56,1.0,12
1.54,1.07,12
1.55,1.07,12
1.55,0.99,12
1.54,1.04,12
1.54,1.09,12
1.56,1.01,12
1.55,1.01,12
1.55,1.09,12
1.56,1.05,12
1.56,1.0,12
1.54,1.07,12
1.55,1.07,12
1.56,0.99,12
1.55,1.03,12
1.56,1.08,12
1.57,1.0,12
1.56,1.0,12
1.55,1.07,12
1.57,1.03,12
1.57,0.98,12
1.55,1.05,12
1.55,1.06,12
1.56,0.98,12
1.54,1.02,12
1.54,1.06,12
1.56,0.99,12
1.55,0.99,12
1.55,1.06,12
1.57,1.02,12
1.56,0.97,12
1.55,1.05,12
1.56,1.04,12
1.56,0.97,12
1.55,1.01,12
1.56,1.06,12
1.57,0.98,12
1.57,0.98,12
1.56,1.05,12
1.57,1.01,12
1.57,0.96,12
1.56,1.04,12
1.57,1.04,12
1.57,0.97,12
1.56,1.01,12
1.56,1.06,12
1.57,0.98,12
1.56,0.97,12
1.55,1.05,12
1.57,1.0,12
1.57,0.94,12
1.55,1.02,12
1.55,1.02,12
1.56,0.94,12
1.54,0.98,12
1.55,1.03,12
1.56,0.95,12
1.56,0.96,12
1.55,1.03,12
1.57,0.99,12
1.56,0.94,12
1.54,1.02,12
1.55,1.02,12
1.56,0.95,12
1.54,0.99,12
1.55,1.04,12
1.57,0.97,12
1.56,0.97,12
1.56,1.04,12
1.58,0.99,12
1.57,0.94,12
1.56,1.01,12
1.57,1.01,12
1.57,0.93,12
1.56,0.97,12
1.56,1.02,12
1.58,0.95,12
1.57,0.95,12
1.56,1.02,12
1.57,0.97,12
1.56,0.92,12
1.54,0.99,12
1.55,0.98,12
1.56,0.91,12
1.55,0.95,12
1.56,1.0,12
1.57,0.92,12
1.56,0.92,12
1.55,0.99,12
1.56,0.95,12
1.56,0.89,12
1.54,0.97,12
1.55,0.97,12
1.56,0.9,12
1.55,0.94,12
1.56,1.0,12
1.57,0.92,12
1.56,0.92,12
1.55,0.99,12
1.56,0.95,12
1.55,0.9,12
1.54,0.98,12
1.54,0.97,12
1.55,0.9,12
1.53,0.94,12
1.54,0.99,12
1.55,0.91,12
1.54,0.91,12
1.53,0.98,12
1.54,0.94,12
1.53,0.89,12
1.52,0.97,12
1.52,0.96,12
1.52,0.88,12
1.51,0.93,12
1.51,0.97,12
1.53,0.89,13
1.52,0.89,13
1.51,0.97,13
1.53,0.92,13
1.52,0.87,13
1.51,0.95,13
1.52,0.94,13
1.53,0.87,13
1.52,0.91,13
1.53,0.96,13
1.54,0.88,13
1.53,0.89,13
1.53,0.96,13
1.55,0.91,13
1.54,0.86,13
1.52,0.94,13
1.52,0.93,13
1.53,0.85,13
1.51,0.9,13
1.51,0.95,13
1.53,0.87,13
1.52,0.88,13
1.51,0.95,13
1.52,0.9,13
1.51,0.85,13
1.49,0.93,13
1.5,0.92,13
1.51,0.85,13
1.5,0.89,13
1.51,0.94,13
1.52,0.87,13
1.51,0.88,13
1.5,0.95,13
1.52,0.9,13
1.51,0.86,13
1.49,0.93,13
1.51,0.92,13
1.51,0.85,13
1.5,0.9,13
1.51,0.95,13
1.53,0.87,13
1.52,0.87,13
1.52,0.94,13
1.53,0.89,13
1.53,0.85,13
1.51,0.93,13
1.52,0.92,13
1.53,0.84,13
1.51,0.89,13
1.52,0.93,13
1.53,0.85,13
1.53,0.86,13
1.52,0.93,13
1.53,0.88,13
1.52,0.84,13
1.51,0.92,13
1.52,0.91,13
1.52,0.83,13
1.51,0.88,13
1.52,0.92,13
1.53,0.84,13
1.52,0.85,13
1.51,0.93,13
1.53,0.88,13
1.52,0.84,13
1.51,0.92,13
1.52,0.91,13
1.53,0.84,13
1.51,0.89,13
1.52,0.93,13
1.54,0.85,13
1.52,0.86,13
1.52,0.94,13
1.53,0.89,13
1.53,0.86,13
1.51,0.94,13
1.53,0.93,13
1.53,0.87,13
1.51,0.92,13
1.52,0.96,13
1.54,0.88,13
1.52,0.9,13
1.52,0.97,13
1.54,0.92,13
1.53,0.87,13
1.52,0.96,13
1.53,0.94,13
1.53,0.87,13
1.52,0.93,13
1.52,0.97,13
1.54,0.89,13
1.53,0.9,13
1.52,0.98,13
1.53,0.92,13
1.52,0.89,13
1.5,0.97,13
1.51,0.97,13
1.52,0.9,13
1.5,0.95,13
1.51,0.99,13
1.53,0.9,13
1.52,0.91,13
1.51,0.98,13
1.53,0.93,13
1.52,0.89,13
1.5,0.98,13
1.51,0.97,13
1.52,0.9,13
1.5,0.95,13
1.5,0.98,13
1.52,0.9,13
1.51,0.91,13
1.5,0.98,13
1.52,0.93,13
1.52,0.9,13
1.5,0.98,13
1.51,0.96,13
1.52,0.89,13
1.5,0.95,13
1.51,0.98,13
1.53,0.9,13
1.52,0.91,13
1.51,0.98,13
1.53,0.92,13
1.52,0.89,13
1.51,0.97,13
1.52,0.96,13
1.53,0.89,13
1.51,0.94,13
1.52,0.98,13
1.54,0.9,13
1.52,0.92,13
1.52,0.99,13
1.54,0.94,13
1.53,0.9,13
1.51,0.98,13
1.53,0.96,13
1.53,0.89,13
1.51,0.94,13
1.52,0.97,13
1.53,0.89,13
1.51,0.91,13
1.5,0.99,13
1.52,0.93,13
1.51,0.9,13
1.49,0.98,13
1.51,0.97,13
1.52,0.9,13
1.5,0.95,13
1.51,0.99,13
1.52,0.9,13
1.51,0.92,13
1.5,0.99,13
1.53,0.94,13
1.51,0.91,13
1.5,1.0,13
1.52,0.98,13
1.52,0.91,13
1.5,0.95,13
1.51,0.98,13
1.52,0.9,13
1.51,0.92,13
1.5,0.99,13
1.52,0.94,13
1.52,0.91,13
1.5,0.99,13
1.52,0.97,13
1.52,0.9,13
1.5,0.96,13
1.51,0.99,13
1.52,0.9,13
1.51,0.92,13
1.5,0.99,13
1.52,0.93,13
1.52,0.9,13
1.51,0.98,13
1.52,0.97,13
1.52,0.9,13
1.5,0.95,13
1.51,0.98,13
1.52,0.9,13
1.51,0.92,13
1.5,0.98,13
1.52,0.93,13
1.51,0.9,13
1.5,0.98,13
1.52,0.95,13
1.52,0.88,13
1.5,0.94,13
1.51,0.96,13
1.53,0.88,13
1.52,0.9,13
1.52,0.97,13
1.54,0.91,13
1.53,0.88,13
1.51,0.96,13
1.52,0.95,13
1.53,0.87,13
1.5,0.93,13
1.51,0.95,13
1.52,0.87,13
1.51,0.89,13
1.5,0.96,13
1.53,0.9,13
1.52,0.87,13
1.5,0.95,13
1.52,0.93,13
1.52,0.87,13
1.5,0.93,13
1.51,0.96,13
1.53,0.88,13
1.51,0.9,13
1.51,0.97,13
1.52,0.9,13
1.51,0.86,13
1.5,0.94,13
1.51,0.93,13
1.52,0.86,13
1.5,0.92,13
1.52,0.96,13
1.53,0.88,13
1.52,0.9,13
1.51,0.97,13
1.54,0.9,13
1.53,0.87,13
1.52,0.95,13
1.53,0.93,13
1.53,0.86,13
1.51,0.92,13
1.52,0.95,13
1.53,0.87,13
1.52,0.88,13
1.51,0.95,13
1.53,0.89,13
1.52,0.86,13
1.51,0.94,13
1.52,0.92,13
1.53,0.86,13
1.51,0.91,13
1.51,0.94,13
1.52,0.86,13
1.51,0.88,13
1.5,0.95,13
1.52,0.89,13
1.51,0.86,13
1.5,0.94,13
1.51,0.91,13
1.52,0.85,13
1.5,0.91,13
1.51,0.94,13
1.52,0.86,13
1.5,0.88,13
1.5,0.94,13
1.52,0.87,13
1.51,0.84,13
1.5,0.93,13
1.52,0.91,13
1.52,0.84,13
1.5,0.9,13
1.51,0.93,13
1.52,0.85,13
1.51,0.87,13
1.51,0.94,13
1.53,0.87,13
1.52,0.84,13
1.51,0.92,13
1.52,0.9,13
1.53,0.83,13
1.51,0.9,13
1.52,0.93,13
1.53,0.85,13
1.52,0.88,13
1.51,0.94,13
1.53,0.88,13
1.52,0.86,13
1.51,0.94,13
1.52,0.92,13
1.53,0.85,13
1.51,0.91,13
1.52,0.94,13
1.52,0.86,13
1.51,0.88,13
1.51,0.95,13
1.53,0.89,13
1.53,0.87,13
1.52,0.95,13
1.54,0.92,13
1.55,0.86,13
1.53,0.92,13
1.53,0.95,13
1.54,0.86,13
1.53,0.88,13
1.52,0.95,13
1.54,0.88,13
1.54,0.85,13
1.53,0.93,13
1.54,0.92,13
1.54,0.85,13
1.52,0.91,13
1.52,0.94,13
1.53,0.86,13
1.51,0.87,13
1.51,0.94,13
1.53,0.88,13
1.52,0.84,13
1.51,0.91,13
1.52,0.87,13
1.53,0.79,13
1.51,0.83,13
1.52,0.82,13
1.53,0.7,13
1.52,0.69,13
1.51,0.7,13
1.53,0.59,13
1.53,0.51,13
1.52,0.55,13
1.53,0.47,13
1.54,0.37,13
1.51,0.4,13
1.52,0.39,13
1.53,0.28,13
1.53,0.28,13
1.51,0.3,13
1.54,0.2,13
1.53,0.15,13
1.52,0.2,13
1.53,0.15,13
1.54,0.1,13
1.51,0.14,13
1.52,0.14,13
1.52,0.09,13
1.51,0.11,13
1.5,0.12,13
1.53,0.07,13
1.52,0.05,13
1.51,0.08,13
1.52,0.04,13
1.52,0.03,13
1.5,0.06,13
1.5,0.06,13
1.51,0.04,13
1.5,0.06,13
1.48,0.07,13
1.51,0.03,13
1.5,0.03,13
1.48,0.04,13
1.49,0.02,13
1.5,0.01,13
1.47,0.04,13
1.48,0.04,13
1.49,0.03,13
1.47,0.05,13
1.47,0.05,13
1.49,0.02,13
1.48,0.02,13
1.47,0.03,13
1.48,0.02,13
1.49,0.01,13
1.46,0.04,13
1.46,0.04,13
1.47,0.03,13
1.46,0.05,13
1.45,0.06,13
1.47,0.03,13
1.47,0.03,13
1.46,0.04,13
1.47,0.02,13
1.48,0.02,13
1.46,0.06,13
1.48,0.06,13
1.49,0.05,13
1.48,0.07,13
1.47,0.09,13
1.5,0.05,13
1.48,0.04,13
1.47,0.07,13
1.48,0.05,13
1.48,0.04,13
1.45,0.09,13
1.45,0.11,13
1.46,0.08,13
1.45,0.11,13
1.45,0.13,13
1.48,0.08,13
1.47,0.06,13
1.47,0.09,13
1.48,0.07,13
1.49,0.05,13
1.47,0.1,13
1.48,0.12,13
1.49,0.09,13
1.48,0.12,13
1.48,0.15,13
1.49,0.09,13
1.49,0.07,13
1.47,0.11,13
1.48,0.08,13
1.48,0.06,13
1.45,0.11,13
1.46,0.13,13
1.46,0.09,13
1.45,0.13,13
1.45,0.16,13
1.47,0.11,13
1.47,0.1,13
1.47,0.15,13
1.49,0.14,13
1.5,0.1,13
1.48,0.18,13
1.49,0.23,13
1.5,0.18,13
1.48,0.24,13
1.47,0.32,13
1.5,0.3,13
1.49,0.32,13
1.49,0.44,13
1.5,0.45,13
1.51,0.43,13
1.49,0.53,13
1.5,0.58,13
1.51,0.54,13
1.5,0.61,13
1.49,0.71,13
1.52,0.69,13
1.51,0.7,13
1.5,0.82,13
1.52,0.83,13
1.53,0.81,13
1.51,0.91,13
1.52,0.96,13
1.53,0.91,13
1.53,0.96,13
1.52,1.05,13
1.55,1.01,13
1.55,1.01,13
1.54,1.1,13
1.55,1.08,13
1.56,1.02,13
1.53,1.09,13
1.54,1.11,13
1.55,1.03,13
1.55,1.06,13
1.54,1.12,13
1.56,1.06,13
1.55,1.04,13
1.54,1.13,13
1.55,1.1,13
1.56,1.04,13
1.54,1.11,13
1.55,1.13,13
1.56,1.05,13
1.55,1.08,13
1.54,1.14,13
1.57,1.07,13
1.56,1.06,13
1.56,1.14,13
1.57,1.11,13
1.57,1.05,13
1.55,1.12,13
1.56,1.14,13
1.57,1.06,13
1.56,1.09,13
1.56,1.16,13
1.58,1.09,13
1.57,1.08,13
1.56,1.16,13
1.58,1.13,13
1.58,1.07,13
1.56,1.13,13
1.56,1.15,13
1.57,1.07,13
1.56,1.1,13
1.55,1.16,13
1.58,1.09,13
1.57,1.08,13
1.56,1.16,13
1.57,1.14,13
1.58,1.08,13
1.56,1.14,13
1.57,1.15,13
1.58,1.06,13
1.57,1.08,13
1.57,1.14,13
1.59,1.07,13
1.58,1.06,13
1.57,1.14,13
1.57,1.11,13
1.58,1.05,13
1.56,1.12,13
1.57,1.13,13
1.58,1.05,13
1.58,1.09,13
1.57,1.15,13
1.59,1.09,13
1.58,1.08,13
1.57,1.16,13
1.58,1.13,13
1.59,1.07,13
1.56,1.13,13
1.57,1.14,13
1.58,1.07,13
1.57,1.1,13
1.56,1.16,13
1.59,1.09,13
1.58,1.07,13
1.57,1.15,13
1.59,1.12,13
1.59,1.06,13
1.57,1.14,13
1.58,1.15,13
1.58,1.08,13
1.57,1.11,13
1.57,1.17,13
1.59,1.1,13
1.58,1.09,13
1.57,1.16,13
1.59,1.13,13
1.59,1.07,13
1.57,1.14,13
1.58,1.16,13
1.59,1.08,13
1.58,1.11,13
1.58,1.17,13
1.6,1.1,13
1.59,1.1,13
1.58,1.18,13
1.6,1.15,13
1.6,1.1,13
1.58,1.17,13
1.59,1.18,13
1.59,1.1,13
1.58,1.13,13
1.57,1.19,13
1.59,1.12,13
1.58,1.11,13
1.57,1.19,13
1.58,1.15,13
1.58,1.1,13
1.56,1.16,13
1.56,1.18,13
1.57,1.1,13
1.56,1.14,13
1.56,1.19,13
1.59,1.12,13
1.58,1.11,13
1.57,1.19,13
1.58,1.16,13
1.58,1.11,13
1.56,1.18,13
1.57,1.2,13
1.58,1.12,13
1.56,1.15,13
1.56,1.21,13
1.58,1.14,13
1.57,1.13,13
1.56,1.21,13
1.57,1.18,13
1.57,1.13,13
1.55,1.2,13
1.56,1.22,13
1.58,1.15,13
1.57,1.19,13
1.56,1.25,13
1.59,1.17,13
1.59,1.15,13
1.58,1.23,13
1.59,1.19,13
1.6,1.13,13
1.58,1.21,13
1.58,1.23,13
1.59,1.16,13
1.59,1.2,13
1.58,1.26,13
1.6,1.18,13
1.59,1.17,13
1.58,1.25,13
1.59,1.22,13
1.6,1.17,13
1.58,1.25,13
1.59,1.26,13
1.6,1.2,13
1.59,1.23,13
1.59,1.28,13
1.61,1.21,13
1.61,1.2,13
1.6,1.28,13
1.62,1.25,13
1.62,1.2,13
1.6,1.28,13
1.6,1.29,13
1.61,1.21,13
1.6,1.24,13
1.59,1.3,13
1.61,1.23,13
1.6,1.23,13
1.59,1.31,13
1.6,1.28,13
1.6,1.23,13
1.58,1.3,13
1.59,1.31,13
1.59,1.23,13
1.58,1.27,13
1.58,1.32,13
1.6,1.26,13
1.59,1.26,13
1.58,1.34,13
1.59,1.3,13
1.6,1.25,14
1.58,1.32,14
1.59,1.33,14
1.6,1.25,14
1.59,1.29,14
1.59,1.35,14
1.61,1.28,14
1.61,1.28,14
1.6,1.35,14
1.61,1.32,14
1.62,1.26,14
1.59,1.33,14
1.6,1.34,14
1.6,1.27,14
1.59,1.31,14
1.59,1.37,14
1.61,1.3,14
1.61,1.3,14
1.6,1.37,14
1.62,1.34,14
1.63,1.29,14
1.61,1.37,14
1.62,1.37,14
1.63,1.3,14
1.62,1.34,14
1.62,1.4,14
1.64,1.32,14
1.63,1.32,14
1.62,1.39,14
1.63,1.35,14
1.63,1.3,14
1.61,1.37,14
1.62,1.38,14
1.63,1.31,14
1.61,1.35,14
1.61,1.41,14
1.63,1.33,14
1.63,1.33,14
1.62,1.4,14
1.63,1.37,14
1.64,1.31,14
1.62,1.39,14
1.63,1.39,14
1.64,1.32,14
1.62,1.36,14
1.61,1.41,14
1.63,1.34,14
1.63,1.34,14
1.62,1.42,14
1.63,1.39,14
1.64,1.34,14
1.62,1.41,14
1.63,1.41,14
1.64,1.34,14
1.62,1.38,14
1.62,1.43,14
1.64,1.36,14
1.63,1.36,14
1.62,1.44,14
1.64,1.4,14
1.64,1.35,14
1.62,1.42,14
1.63,1.43,14
1.64,1.36,14
1.63,1.4,14
1.62,1.45,14
1.65,1.39,14
1.64,1.39,14
1.63,1.46,14
1.65,1.43,14
1.65,1.37,14
1.63,1.44,14
1.64,1.44,14
1.65,1.37,14
1.64,1.4,14
1.64,1.46,14
1.66,1.39,14
1.65,1.39,14
1.65,1.46,14
1.66,1.42,14
1.66,1.37,14
1.64,1.44,14
1.65,1.44,14
1.65,1.37,14
1.63,1.41,14
1.63,1.47,14
1.65,1.4,14
1.64,1.39,14
1.63,1.47,14
1.64,1.42,14
1.64,1.37,14
1.62,1.45,14
1.63,1.46,14
1.64,1.39,14
1.62,1.43,14
1.62,1.48,14
1.64,1.41,14
1.64,1.4,14
1.63,1.48,14
1.64,1.45,14
1.64,1.39,14
1.62,1.47,14
1.63,1.47,14
1.64,1.39,14
1.62,1.43,14
1.62,1.48,14
1.63,1.4,14
1.62,1.4,14
1.61,1.48,14
1.62,1.44,14
1.62,1.39,14
1.6,1.46,14
1.61,1.45,14
1.62,1.37,14
1.61,1.41,14
1.61,1.46,14
1.64,1.39,14
1.63,1.39,14
1.63,1.46,14
1.64,1.42,14
1.64,1.37,14
1.63,1.44,14
1.63,1.44,14
1.64,1.36,14
1.63,1.4,14
1.63,1.45,14
1.65,1.37,14
1.65,1.37,14
1.63,1.44,14
1.65,1.4,14
1.65,1.34,14
1.63,1.41,14
1.63,1.42,14
1.64,1.34,14
1.63,1.37,14
1.63,1.42,14
1.65,1.35,14
1.64,1.34,14
1.63,1.41,14
1.64,1.37,14
1.64,1.32,14
1.62,1.39,14
1.63,1.4,14
1.64,1.32,14
1.62,1.36,14
1.61,1.4,14
1.63,1.32,14
1.62,1.32,14
1.61,1.39,14
1.63,1.34,14
1.63,1.29,14
1.61,1.37,14
1.62,1.37,14
1.63,1.29,14
1.62,1.33,14
1.62,1.37,14
1.65,1.29,14
1.64,1.29,14
1.63,1.37,14
1.65,1.33,14
1.64,1.27,14
1.62,1.34,14
1.63,1.34,14
1.63,1.26,14
1.62,1.3,14
1.62,1.35,14
1.64,1.27,14
1.63,1.27,14
1.62,1.34,14
1.63,1.29,14
1.63,1.23,14
1.61,1.31,14
1.62,1.31,14
1.63,1.22,14
1.61,1.25,14
1.61,1.3,14
1.63,1.22,14
1.62,1.21,14
1.61,1.29,14
1.63,1.25,14
1.63,1.2,14
1.61,1.27,14
1.62,1.27,14
1.63,1.19,14
1.62,1.22,14
1.61,1.26,14
1.63,1.18,14
1.63,1.18,14
1.61,1.25,14
1.63,1.21,14
1.63,1.15,14
1.61,1.23,14
1.61,1.22,14
1.62,1.14,14
1.6,1.18,14
1.61,1.23,14
1.63,1.15,14
1.62,1.15,14
1.6,1.22,14
1.62,1.17,14
1.62,1.12,14
1.6,1.19,14
1.61,1.19,14
1.62,1.1,14
1.61,1.14,14
1.61,1.19,14
1.63,1.12,14
1.62,1.11,14
1.61,1.19,14
1.62,1.14,14
1.62,1.08,14
1.6,1.16,14
1.61,1.16,14
1.63,1.09,14
1.61,1.13,14
1.61,1.18,14
1.63,1.09,14
1.62,1.09,14
1.61,1.16,14
1.62,1.11,14
1.62,1.06,14
1.6,1.14,14
1.61,1.13,14
1.62,1.06,14
1.6,1.11,14
1.6,1.15,14
1.62,1.07,14
1.61,1.07,14
1.6,1.14,14
1.62,1.09,14
1.61,1.04,14
1.6,1.12,14
1.6,1.12,14
1.61,1.04,14
1.59,1.08,14
1.6,1.12,14
1.61,1.04,14
1.6,1.04,14
1.59,1.11,14
1.6,1.07,14
1.6,1.02,14
1.58,1.1,14
1.59,1.1,14
1.59,1.02,14
1.58,1.06,14
1.58,1.1,14
1.6,1.02,14
1.6,1.01,14
1.59,1.09,14
1.6,1.05,14
1.6,0.99,14
1.58,1.07,14
1.59,1.07,14
1.59,0.98,14
1.57,1.02,14
1.57,1.07,14
1.59,0.99,14
1.58,0.99,14
1.57,1.06,14
1.58,1.01,14
1.57,0.96,14
1.55,1.04,14
1.56,1.04,14
1.57,0.96,14
1.56,1.0,14
1.57,1.04,14
1.59,0.96,14
1.58,0.95,14
1.57,1.02,14
1.59,0.98,14
1.59,0.93,14
1.57,1.01,14
1.58,1.0,14
1.59,0.92,14
1.57,0.96,14
1.57,1.0,14
1.59,0.92,14
1.58,0.93,14
1.57,1.0,14
1.58,0.97,14
1.58,0.91,14
1.56,0.97,14
1.57,0.96,14
1.57,0.88,14
1.55,0.92,14
1.55,0.97,14
1.56,0.89,14
1.55,0.89,14
1.55,0.97,14
1.57,0.91,14
1.56,0.86,14
1.55,0.93,14
1.56,0.92,14
1.56,0.83,14
1.55,0.88,14
1.55,0.92,14
1.57,0.84,14
1.56,0.84,14
1.56,0.92,14
1.58,0.87,14
1.57,0.82,14
1.54,0.89,14
1.55,0.89,14
1.55,0.81,14
1.53,0.85,14
1.54,0.9,14
1.56,0.82,14
1.55,0.82,14
1.55,0.89,14
1.56,0.84,14
1.56,0.79,14
1.55,0.87,14
1.56,0.86,14
1.57,0.78,14
1.56,0.82,14
1.56,0.86,14
1.58,0.78,14
1.56,0.79,14
1.56,0.86,14
1.57,0.81,14
1.57,0.77,14
1.54,0.84,14
1.55,0.83,14
1.56,0.76,14
1.54,0.8,14
1.54,0.83,14
1.56,0.75,14
1.56,0.75,14
1.55,0.82,14
1.57,0.78,14
1.57,0.73,14
1.56,0.81,14
1.57,0.8,14
1.58,0.71,14
1.57,0.75,14
1.58,0.79,14
1.6,0.72,14
1.59,0.73,14
1.58,0.8,14
1.59,0.76,14
1.58,0.71,14
1.56,0.79,14
1.57,0.78,14
1.57,0.7,14
1.56,0.75,14
1.56,0.79,14
1.58,0.71,14
1.56,0.71,14
1.56,0.79,14
1.57,0.75,14
1.56,0.7,14
1.55,0.78,14
1.56,0.76,14
1.56,0.68,14
1.54,0.72,14
1.55,0.76,14
1.57,0.68,14
1.56,0.68,14
1.56,0.75,14
1.57,0.7,14
1.56,0.65,14
1.54,0.72,14
1.55,0.72,14
1.55,0.65,14
1.54,0.7,14
1.55,0.75,14
1.56,0.67,14
1.55,0.67,14
1.54,0.73,14
1.56,0.67,14
1.55,0.62,14
1.53,0.69,14
1.55,0.69,14
1.56,0.62,14
1.55,0.67,14
1.56,0.71,14
1.58,0.64,14
1.57,0.63,14
1.56,0.7,14
1.57,0.64,14
1.56,0.6,14
1.54,0.67,14
1.55,0.67,14
1.56,0.6,14
1.55,0.65,14
1.56,0.69,14
1.57,0.61,14
1.56,0.6,14
1.56,0.67,14
1.57,0.63,14
1.57,0.58,14
1.55,0.66,14
1.56,0.65,14
1.57,0.58,14
1.55,0.62,14
1.56,0.66,14
1.57,0.58,14
1.56,0.58,14
1.55,0.65,14
1.57,0.6,14
1.56,0.56,14
1.54,0.64,14
1.55,0.64,14
1.56,0.57,14
1.54,0.61,14
1.55,0.65,14
1.57,0.57,14
1.56,0.57,14
1.55,0.64,14
1.56,0.59,14
1.56,0.54,14
1.54,0.6,14
1.56,0.57,14
1.58,0.47,14
1.58,0.49,14
1.58,0.5,14
1.6,0.39,14
1.6,0.36,14
1.59,0.4,14
1.59,0.32,14
1.59,0.23,14
1.58,0.27,14
1.59,0.23,14
1.59,0.16,14
1.58,0.18,14
1.58,0.19,14
1.6,0.12,14
1.59,0.11,14
1.58,0.13,14
1.6,0.07,14
1.59,0.05,14
1.58,0.07,14
1.59,0.04,14
1.6,0.02,14
1.58,0.04,14
1.58,0.04,14
1.6,0.02,14
1.58,0.02,14
1.57,0.02,14
1.58,0.0,14
1.57,0.0,14
1.55,0.0,14
1.56,0.0,14
1.57,0.0,14
1.55,0.0,14
1.55,0.0,14
1.56,0.0,14
1.54,0.0,14
1.53,0.0,14
1.55,0.0,14
1.54,0.0,14
1.53,0.0,14
1.53,0.0,14
1.54,0.0,14
1.51,0.0,14
1.52,0.0,14
1.53,0.0,14
1.52,0.0,14
1.51,0.0,14
1.53,0.0,14
1.52,0.0,14
1.5,0.0,14
1.5,0.0,14
1.51,0.0,14
1.49,0.0,14
1.49,0.0,14
1.51,0.0,14
1.5,0.0,14
1.49,0.0,14
1.5,0.0,14
1.5,0.0,14
1.48,0.0,14
1.49,0.0,14
1.49,0.0,14
1.48,0.0,14
1.48,0.0,14
1.49,0.0,14
1.48,0.0,14
1.47,0.0,14
1.48,0.0,14
1.48,0.0,14
1.46,0.0,14
1.47,0.0,14
1.47,0.0,14
1.45,0.0,14
1.46,0.0,14
1.47,0.0,14
1.47,0.0,14
1.46,0.0,14
1.48,0.0,14
1.47,0.0,14
1.45,0.0,14
1.46,0.0,14
1.46,0.0,14
1.45,0.0,14
1.45,0.0,14
1.47,0.0,14
1.46,0.0,14
1.45,0.0,14
1.47,0.0,14
1.46,0.0,14
1.44,0.0,14
1.46,0.0,14
1.46,0.0,14
1.45,0.0,14
1.45,0.0,14
1.47,0.0,14
1.46,0.0,14
1.46,0.0,14
1.48,0.0,14
1.48,0.0,14
1.46,0.0,14
1.47,0.0,14
1.47,0.0,14
1.45,0.0,14
1.45,0.0,14
1.47,0.0,14
1.46,0.0,14
1.46,0.0,14
1.47,0.0,14
1.47,0.0,14
1.45,0.0,14
1.46,0.0,14
1.46,0.0,14
1.45,0.0,14
1.46,0.0,14
1.48,0.0,14
1.46,0.0,14
1.45,0.0,14
1.46,0.0,14
1.45,0.0,14
1.43,0.0,14
1.45,0.0,14
1.46,0.0,14
1.44,0.03,14
1.45,0.03,14
1.47,0.02,14
1.46,0.03,14
1.45,0.05,14
1.47,0.02,14
1.46,0.02,14
1.44,0.06,14
1.46,0.07,14
1.47,0.06,14
1.45,0.11,14
1.46,0.15,14
1.47,0.11,14
1.46,0.15,14
1.45,0.2,14
1.47,0.18,14
1.47,0.17,14
1.45,0.26,14
1.46,0.29,14
1.47,0.25,14
1.46,0.33,14
1.46,0.4,14
1.48,0.36,14
1.47,0.4,14
1.46,0.5,14
1.47,0.49,14
1.47,0.48,14
1.46,0.6,14
1.47,0.63,14
1.47,0.59,14
1.46,0.67,14
1.47,0.74,14
1.48,0.67,14
1.48,0.7,14
1.48,0.79,14
1.5,0.76,14
1.49,0.73,14
1.48,0.83,14
1.48,0.84,14
1.49,0.78,14
1.47,0.85,14
1.48,0.9,14
1.49,0.84,14
1.49,0.86,14
1.48,0.95,14
1.5,0.91,14
1.49,0.87,14
1.48,0.96,14
1.49,0.95,14
1.5,0.89,14
1.48,0.94,14
1.49,0.99,14
1.5,0.91,14
1.5,0.91,14
1.49,0.98,14
1.51,0.92,14
1.51,0.87,14
1.49,0.94,14
1.5,0.94,14
1.51,0.87,14
1.49,0.92,14
1.49,0.97,14
1.51,0.89,14
1.49,0.9,14
1.49,0.97,14
1.5,0.92,14
1.49,0.88,14
1.47,0.95,14
1.48,0.94,14
1.49,0.87,14
1.48,0.91,14
1.48,0.96,14
1.5,0.89,14
1.5,0.9,14
1.49,0.97,14
1.51,0.92,14
1.5,0.88,14
1.48,0.96,14
1.49,0.95,14
1.5,0.88,14
1.48,0.93,14
1.49,0.98,14
1.51,0.9,14
1.5,0.91,14
1.5,0.98,14
1.51,0.94,14
1.51,0.9,14
1.49,0.98,14
1.5,0.98,14
1.51,0.91,14
1.5,0.96,14
1.5,1.0,14
1.52,0.93,14
1.51,0.93,14
1.5,1.0,14
1.51,0.96,14
1.5,0.92,14
1.48,0.99,14
1.5,0.98,14
1.51,0.91,14
1.49,0.96,14
1.5,0.99,14
1.52,0.91,14
1.5,0.92,14
1.49,0.99,14
1.51,0.94,14
1.5,0.9,14
1.49,0.98,14
1.51,0.97,14
1.52,0.9,14
1.5,0.94,14
1.51,0.98,14
1.52,0.9,14
1.51,0.91,14
1.5,0.98,14
1.52,0.93,14
1.51,0.89,14
1.49,0.97,14
1.5,0.97,14
1.51,0.89,14
1.49,0.94,14
1.5,0.99,14
1.51,0.91,14
1.51,0.92,14
1.5,0.99,14
1.52,0.95,14
1.52,0.91,14
1.51,0.99,14
1.52,0.98,14
1.52,0.9,14
1.51,0.95,14
1.52,0.98,14
1.54,0.9,14
1.53,0.91,14
1.52,0.98,14
1.54,0.94,14
1.54,0.9,14
1.52,0.98,14
1.53,0.97,14
1.54,0.9,14
1.52,0.94,14
1.52,0.98,14
1.54,0.9,14
1.53,0.9,14
1.52,0.98,14
1.54,0.93,14
1.53,0.89,14
1.51,0.97,14
1.53,0.96,14
1.53,0.89,14
1.51,0.94,14
1.52,0.98,14
1.53,0.9,14
1.52,0.91,14
1.51,0.98,14
1.53,0.93,14
1.53,0.89,14
1.51,0.97,14
1.52,0.96,14
1.53,0.88,14
1.51,0.93,14
1.52,0.98,14
1.54,0.9,14
1.52,0.9,14
1.52,0.97,14
1.54,0.92,14
1.53,0.87,14
1.51,0.95,14
1.52,0.95,14
1.52,0.88,14
1.5,0.93,14
1.51,0.98,14
1.53,0.9,14
1.52,0.9,15
1.51,0.97,15
1.53,0.92,15
1.52,0.88,15
1.5,0.96,15
1.51,0.95,15
1.52,0.88,15
1.5,0.92,15
1.51,0.96,15
1.53,0.88,15
1.52,0.88,15
1.51,0.96,15
1.52,0.91,15
1.51,0.86,15
1.49,0.94,15
1.5,0.93,15
1.51,0.86,15
1.49,0.9,15
1.5,0.94,15
1.52,0.86,15
1.51,0.87,15
1.5,0.94,15
1.52,0.89,15
1.51,0.85,15
1.49,0.93,15
1.5,0.92,15
1.51,0.85,15
1.5,0.89,15
1.5,0.94,15
1.52,0.86,15
1.51,0.87,15
1.5,0.94,15
1.52,0.89,15
1.52,0.85,15
1.5,0.92,15
1.52,0.91,15
1.53,0.83,15
1.51,0.88,15
1.52,0.93,15
1.53,0.86,15
1.52,0.87,15
1.51,0.94,15
1.53,0.9,15
1.52,0.85,15
1.51,0.92,15
1.52,0.91,15
1.53,0.85,15
1.52,0.9,15
1.52,0.94,15
1.54,0.86,15
1.53,0.86,15
1.52,0.93,15
1.54,0.87,15
1.53,0.83,15
1.51,0.91,15
1.52,0.9,15
1.52,0.84,15
1.5,0.88,15
1.5,0.92,15
1.52,0.84,15
1.51,0.84,15
1.5,0.91,15
1.52,0.86,15
1.51,0.82,15
1.5,0.9,15
1.51,0.9,15
1.51,0.82,15
1.5,0.87,15
1.5,0.91,15
1.52,0.83,15
1.5,0.83,15
1.49,0.91,15
1.5,0.86,15
1.49,0.82,15
1.47,0.91,15
1.48,0.9,15
1.49,0.83,15
1.47,0.87,15
1.48,0.91,15
1.49,0.83,15
1.48,0.85,15
1.48,0.92,15
1.49,0.88,15
1.49,0.84,15
1.47,0.93,15
1.48,0.92,15
1.49,0.85,15
1.47,0.9,15
1.48,0.95,15
1.5,0.87,15
1.49,0.88,15
1.49,0.96,15
1.5,0.91,15
1.5,0.87,15
1.48,0.95,15
1.5,0.94,15
1.5,0.88,15
1.48,0.93,15
1.49,0.98,15
1.51,0.9,15
1.49,0.91,15
1.49,0.98,15
1.51,0.93,15
1.5,0.89,15
1.48,0.98,15
1.49,0.97,15
1.49,0.9,15
1.47,0.95,15
1.48,0.98,15
1.5,0.91,15
1.49,0.92,15
1.48,1.0,15
1.5,0.96,15
1.49,0.93,15
1.47,1.0,15
1.49,0.99,15
1.5,0.93,15
1.49,0.97,15
1.51,1.01,15
1.53,0.94,15
1.52,0.95,15
1.51,1.02,15
1.52,0.98,15
1.52,0.94,15
1.5,1.02,15
1.51,1.02,15
1.52,0.95,15
1.5,1.0,15
1.52,1.04,15
1.53,0.97,15
1.52,0.98,15
1.51,1.05,15
1.53,1.0,15
1.52,0.97,15
1.51,1.05,15
1.52,1.04,15
1.53,0.97,15
1.51,1.02,15
1.52,1.05,15
1.53,0.97,15
1.52,0.98,15
1.52,1.05,15
1.54,1.01,15
1.53,0.98,15
1.52,1.06,15
1.53,1.05,15
1.53,0.98,15
1.51,1.03,15
1.52,1.07,15
1.53,1.0,15
1.52,1.02,15
1.51,1.1,15
1.53,1.06,15
1.53,1.02,15
1.51,1.1,15
1.52,1.09,15
1.53,1.02,15
1.51,1.07,15
1.52,1.11,15
1.54,1.04,15
1.53,1.05,15
1.52,1.12,15
1.54,1.07,15
1.53,1.04,15
1.52,1.12,15
1.53,1.11,15
1.54,1.05,15
1.53,1.1,15
1.53,1.14,15
1.54,1.06,15
1.53,1.07,15
1.52,1.14,15
1.54,1.1,15
1.54,1.07,15
1.53,1.15,15
1.54,1.15,15
1.56,1.08,15
1.54,1.13,15
1.55,1.17,15
1.57,1.08,15
1.56,1.09,15
1.55,1.16,15
1.56,1.12,15
1.55,1.09,15
1.54,1.17,15
1.55,1.16,15
1.55,1.08,15
1.54,1.13,15
1.55,1.16,15
1.56,1.08,15
1.55,1.09,15
1.55,1.16,15
1.57,1.12,15
1.56,1.08,15
1.54,1.16,15
1.55,1.16,15
1.55,1.09,15
1.53,1.14,15
1.54,1.18,15
1.55,1.1,15
1.54,1.11,15
1.53,1.18,15
1.55,1.14,15
1.54,1.1,15
1.52,1.19,15
1.53,1.18,15
1.54,1.11,15
1.53,1.16,15
1.53,1.2,15
1.55,1.12,15
1.54,1.13,15
1.53,1.2,15
1.54,1.15,15
1.54,1.11,15
1.52,1.19,15
1.53,1.18,15
1.54,1.11,15
1.52,1.16,15
1.53,1.2,15
1.55,1.12,15
1.54,1.14,15
1.53,1.21,15
1.55,1.16,15
1.54,1.12,15
1.52,1.2,15
1.53,1.19,15
1.54,1.12,15
1.52,1.18,15
1.54,1.21,15
1.56,1.13,15
1.55,1.15,15
1.54,1.22,15
1.56,1.17,15
1.55,1.14,15
1.54,1.21,15
1.55,1.2,15
1.56,1.12,15
1.54,1.17,15
1.55,1.2,15
1.56,1.11,15
1.55,1.12,15
1.53,1.18,15
1.55,1.13,15
1.54,1.1,15
1.53,1.18,15
1.54,1.18,15
1.55,1.11,15
1.53,1.17,15
1.53,1.2,15
1.55,1.11,15
1.54,1.12,15
1.53,1.19,15
1.55,1.13,15
1.54,1.1,15
1.52,1.18,15
1.53,1.17,15
1.54,1.1,15
1.53,1.15,15
1.54,1.19,15
1.56,1.11,15
1.55,1.12,15
1.55,1.19,15
1.57,1.14,15
1.56,1.1,15
1.54,1.18,15
1.55,1.17,15
1.56,1.1,15
1.54,1.15,15
1.55,1.19,15
1.57,1.11,15
1.56,1.12,15
1.55,1.18,15
1.57,1.13,15
1.57,1.1,15
1.55,1.17,15
1.56,1.16,15
1.57,1.09,15
1.55,1.15,15
1.57,1.18,15
1.59,1.11,15
1.58,1.12,15
1.58,1.19,15
1.6,1.14,15
1.59,1.1,15
1.57,1.19,15
1.58,1.18,15
1.58,1.11,15
1.56,1.16,15
1.57,1.19,15
1.59,1.11,15
1.58,1.11,15
1.57,1.18,15
1.59,1.13,15
1.58,1.1,15
1.56,1.18,15
1.57,1.17,15
1.57,1.09,15
1.55,1.14,15
1.56,1.17,15
1.58,1.09,15
1.57,1.09,15
1.56,1.15,15
1.58,1.08,15
1.57,1.02,15
1.55,1.07,15
1.56,1.03,15
1.57,0.94,15
1.56,0.96,15
1.57,0.96,15
1.59,0.85,15
1.58,0.83,15
1.57,0.86,15
1.59,0.77,15
1.58,0.71,15
1.56,0.77,15
1.57,0.74,15
1.58,0.65,15
1.56,0.68,15
1.56,0.69,15
1.57,0.57,15
1.56,0.55,15
1.54,0.6,15
1.56,0.52,15
1.55,0.48,15
1.53,0.55,15
1.54,0.51,15
1.55,0.41,15
1.53,0.44,15
1.54,0.44,15
1.55,0.34,15
1.55,0.35,15
1.54,0.4,15
1.56,0.33,15
1.55,0.27,15
1.53,0.32,15
1.54,0.29,15
1.54,0.22,15
1.52,0.25,15
1.53,0.29,15
1.53,0.21,15
1.52,0.21,15
1.5,0.27,15
1.52,0.2,15
1.51,0.15,15
1.49,0.21,15
1.5,0.19,15
1.51,0.13,15
1.49,0.18,15
1.5,0.21,15
1.51,0.14,15
1.5,0.16,15
1.5,0.21,15
1.51,0.16,15
1.51,0.12,15
1.49,0.17,15
1.5,0.15,15
1.5,0.1,15
1.48,0.15,15
1.49,0.19,15
1.5,0.14,15
1.49,0.15,15
1.48,0.19,15
1.49,0.13,15
1.48,0.1,15
1.46,0.15,15
1.47,0.14,15
1.48,0.1,15
1.46,0.15,15
1.47,0.18,15
1.48,0.13,15
1.47,0.15,15
1.46,0.19,15
1.48,0.15,15
1.48,0.12,15
1.46,0.18,15
1.48,0.17,15
1.48,0.13,15
1.46,0.18,15
1.47,0.21,15
1.49,0.15,15
1.48,0.16,15
1.47,0.21,15
1.49,0.16,15
1.48,0.13,15
1.46,0.19,15
1.47,0.18,15
1.48,0.13,15
1.46,0.18,15
1.46,0.21,15
1.48,0.16,15
1.46,0.17,15
1.45,0.22,15
1.47,0.18,15
1.47,0.14,15
1.46,0.2,15
1.47,0.19,15
1.48,0.14,15
1.46,0.19,15
1.46,0.23,15
1.47,0.17,15
1.46,0.18,15
1.45,0.23,15
1.47,0.18,15
1.46,0.15,15
1.45,0.21,15
1.46,0.21,15
1.47,0.15,15
1.45,0.21,15
1.46,0.25,15
1.48,0.19,15
1.47,0.21,15
1.46,0.28,15
1.48,0.26,15
1.47,0.25,15
1.45,0.36,15
1.47,0.38,15
1.47,0.35,15
1.45,0.44,15
1.46,0.51,15
1.47,0.47,15
1.46,0.52,15
1.46,0.63,15
1.48,0.62,15
1.47,0.63,15
1.46,0.75,15
1.48,0.78,15
1.49,0.74,15
1.47,0.84,15
1.48,0.9,15
1.5,0.85,15
1.49,0.88,15
1.49,0.97,15
1.51,0.94,15
1.5,0.93,15
1.49,1.03,15
1.51,1.03,15
1.51,0.98,15
1.5,1.03,15
1.5,1.07,15
1.51,1.0,15
1.49,1.02,15
1.48,1.09,15
1.49,1.04,15
1.48,1.0,15
1.46,1.08,15
1.47,1.07,15
1.48,0.99,15
1.46,1.04,15
1.47,1.07,15
1.49,1.0,15
1.48,1.01,15
1.47,1.08,15
1.49,1.03,15
1.48,0.99,15
1.47,1.06,15
1.48,1.04,15
1.49,0.97,15
1.47,1.02,15
1.48,1.06,15
1.5,0.98,15
1.49,0.99,15
1.48,1.05,15
1.5,1.0,15
1.49,0.96,15
1.47,1.04,15
1.48,1.02,15
1.49,0.95,15
1.47,1.0,15
1.48,1.04,15
1.49,0.95,15
1.48,0.96,15
1.48,1.02,15
1.49,0.96,15
1.48,0.92,15
1.47,0.99,15
1.48,0.98,15
1.48,0.92,15
1.46,0.97,15
1.47,1.0,15
1.49,0.92,15
1.48,0.94,15
1.48,1.0,15
1.5,0.94,15
1.5,0.91,15
1.49,1.0,15
1.5,0.98,15
1.51,0.92,15
1.49,0.98,15
1.5,1.01,15
1.52,0.93,15
1.5,0.94,15
1.49,1.01,15
1.51,0.95,15
1.5,0.91,15
1.49,0.99,15
1.5,0.97,15
1.51,0.9,15
1.49,0.95,15
1.5,0.98,15
1.51,0.9,15
1.5,0.92,15
1.49,0.99,15
1.5,0.93,15
1.49,0.9,15
1.48,0.97,15
1.49,0.96,15
1.49,0.88,15
1.47,0.93,15
1.48,0.97,15
1.5,0.88,15
1.49,0.9,15
1.48,0.96,15
1.5,0.91,15
1.48,0.87,15
1.47,0.94,15
1.48,0.93,15
1.48,0.86,15
1.46,0.91,15
1.47,0.95,15
1.48,0.86,15
1.47,0.87,15
1.46,0.93,15
1.48,0.88,15
1.48,0.83,15
1.46,0.91,15
1.47,0.9,15
1.48,0.83,15
1.46,0.88,15
1.47,0.91,15
1.48,0.83,15
1.47,0.84,15
1.46,0.91,15
1.48,0.86,15
1.47,0.82,15
1.46,0.9,15
1.47,0.89,15
1.48,0.82,15
1.46,0.86,15
1.46,0.89,15
1.48,0.81,15
1.46,0.81,15
1.46,0.88,15
1.48,0.82,15
1.47,0.79,15
1.46,0.86,15
1.47,0.84,15
1.48,0.77,15
1.46,0.82,15
1.46,0.85,15
1.47,0.77,15
1.46,0.77,15
1.45,0.84,15
1.47,0.79,15
1.46,0.75,15
1.44,0.83,15
1.46,0.82,15
1.46,0.74,15
1.44,0.79,15
1.45,0.82,15
1.46,0.74,15
1.45,0.75,15
1.44,0.82,15
1.46,0.77,15
1.45,0.73,15
1.43,0.81,15
1.44,0.79,15
1.44,0.72,15
1.42,0.76,15
1.43,0.79,15
1.45,0.71,15
1.44,0.72,15
1.43,0.79,15
1.45,0.73,15
1.44,0.69,15
1.42,0.77,15
1.43,0.75,15
1.44,0.68,15
1.42,0.73,15
1.43,0.76,15
1.44,0.68,15
1.42,0.69,15
1.42,0.76,15
1.43,0.7,15
1.42,0.67,15
1.41,0.74,15
1.42,0.72,15
1.42,0.65,15
1.4,0.7,15
1.41,0.73,15
1.42,0.65,15
1.41,0.66,15
1.4,0.72,15
1.42,0.67,15
1.41,0.63,15
1.4,0.7,15
1.41,0.7,15
1.42,0.63,15
1.4,0.68,15
1.4,0.71,15
1.42,0.63,15
1.4,0.64,15
1.4,0.71,15
1.42,0.65,15
1.41,0.62,15
1.39,0.69,15
1.41,0.68,15
1.41,0.61,15
1.39,0.66,15
1.4,0.69,15
1.41,0.61,15
1.39,0.62,15
1.39,0.69,15
1.4,0.63,15
1.39,0.59,15
1.38,0.67,15
1.39,0.65,15
1.4,0.58,15
1.38,0.63,15
1.39,0.66,15
1.4,0.58,15
1.39,0.59,15
1.38,0.65,15
1.39,0.6,15
1.38,0.57,15
1.37,0.65,15
1.38,0.63,15
1.39,0.57,15
1.37,0.62,15
1.38,0.65,15
1.39,0.57,15
1.38,0.58,15
1.38,0.64,15
1.39,0.58,15
1.38,0.55,15
1.37,0.64,15
1.38,0.62,16
1.38,0.55,16
1.36,0.6,16
1.37,0.63,16
1.38,0.54,16
1.37,0.56,16
1.37,0.63,16
1.39,0.58,16
1.38,0.54,16
1.37,0.61,16
1.38,0.59,16
1.39,0.52,16
1.37,0.57,16
1.38,0.61,16
1.4,0.54,16
1.38,0.55,16
1.38,0.61,16
1.4,0.56,16
1.39,0.53,16
1.37,0.6,16
1.38,0.59,16
1.39,0.52,16
1.37,0.57,16
1.37,0.6,16
1.38,0.52,16
1.37,0.53,16
1.37,0.6,16
1.39,0.55,16
1.38,0.52,16
1.37,0.6,16
1.38,0.58,16
1.38,0.52,16
1.37,0.57,16
1.38,0.6,16
1.39,0.52,16
1.38,0.53,16
1.37,0.6,16
1.39,0.55,16
1.38,0.52,16
1.37,0.59,16
1.39,0.58,16
1.4,0.51,16
1.38,0.56,16
1.39,0.6,16
1.41,0.52,16
1.4,0.53,16
1.39,0.6,16
1.42,0.54,16
1.41,0.51,16
1.39,0.58,16
1.4,0.57,16
1.41,0.51,16
1.39,0.56,16
1.4,0.59,16
1.41,0.51,16
1.4,0.52,16
1.39,0.59,16
1.41,0.54,16
1.4,0.52,16
1.39,0.6,16
1.4,0.58,16
1.41,0.51,16
1.39,0.56,16
1.4,0.59,16
1.41,0.5,16
1.4,0.52,16
1.39,0.58,16
1.41,0.53,16
1.4,0.5,16
1.39,0.58,16
1.4,0.57,16
1.41,0.5,16
1.39,0.55,16
1.4,0.58,16
1.42,0.5,16
1.4,0.51,16
1.4,0.58,16
1.41,0.53,16
1.4,0.5,16
1.38,0.58,16
1.4,0.57,16
1.4,0.5,16
1.38,0.54,16
1.39,0.57,16
1.4,0.49,16
1.39,0.51,16
1.39,0.58,16
1.4,0.53,16
1.39,0.5,16
1.38,0.57,16
1.4,0.56,16
1.4,0.49,16
1.39,0.54,16
1.4,0.57,16
1.41,0.49,16
1.4,0.51,16
1.39,0.57,16
1.41,0.52,16
1.4,0.49,16
1.39,0.56,16
1.4,0.55,16
1.41,0.48,16
1.39,0.53,16
1.4,0.56,16
1.41,0.48,16
1.4,0.49,16
1.39,0.56,16
1.41,0.51,16
1.4,0.48,16
1.38,0.56,16
1.39,0.54,16
1.4,0.47,16
1.38,0.52,16
1.39,0.56,16
1.41,0.48,16
1.39,0.49,16
1.39,0.56,16
1.4,0.5,16
1.39,0.47,16
1.38,0.55,16
1.4,0.53,16
1.4,0.47,16
1.39,0.52,16
1.39,0.55,16
1.4,0.47,16
1.39,0.48,16
1.39,0.55,16
1.41,0.5,16
1.4,0.46,16
1.39,0.54,16
1.4,0.52,16
1.4,0.46,16
1.38,0.5,16
1.39,0.54,16
1.4,0.47,16
1.39,0.48,16
1.38,0.55,16
1.4,0.49,16
1.4,0.45,16
1.39,0.53,16
1.4,0.52,16
1.41,0.45,16
1.39,0.51,16
1.4,0.55,16
1.41,0.47,16
1.4,0.48,16
1.39,0.54,16
1.41,0.48,16
1.39,0.45,16
1.38,0.53,16
1.39,0.52,16
1.39,0.45,16
1.37,0.5,16
1.38,0.53,16
1.4,0.45,16
1.38,0.46,16
1.38,0.53,16
1.39,0.47,16
1.38,0.44,16
1.37,0.52,16
1.38,0.51,16
1.39,0.44,16
1.37,0.5,16
1.37,0.53,16
1.39,0.44,16
1.37,0.45,16
1.37,0.52,16
1.39,0.46,16
1.38,0.43,16
1.37,0.51,16
1.38,0.49,16
1.39,0.43,16
1.37,0.48,16
1.38,0.51,16
1.4,0.43,16
1.39,0.44,16
1.38,0.5,16
1.4,0.45,16
1.39,0.42,16
1.38,0.5,16
1.39,0.48,16
1.39,0.42,16
1.37,0.47,16
1.38,0.5,16
1.39,0.42,16
1.38,0.43,16
1.37,0.5,16
1.39,0.44,16
1.38,0.41,16
1.37,0.49,16
1.38,0.47,16
1.39,0.41,16
1.37,0.46,16
1.38,0.49,16
1.39,0.41,16
1.38,0.42,16
1.37,0.49,16
1.39,0.44,16
1.39,0.42,16
1.37,0.5,16
1.39,0.49,16
1.39,0.42,16
1.37,0.47,16
1.38,0.5,16
1.4,0.42,16
1.39,0.43,16
1.39,0.5,16
1.41,0.45,16
1.4,0.42,16
1.39,0.5,16
1.4,0.49,16
1.41,0.42,16
1.39,0.47,16
1.4,0.5,16
1.41,0.42,16
1.4,0.44,16
1.39,0.51,16
1.41,0.45,16
1.4,0.42,16
1.39,0.5,16
1.4,0.48,16
1.41,0.41,16
1.4,0.46,16
1.41,0.5,16
1.42,0.42,16
1.41,0.44,16
1.4,0.51,16
1.42,0.46,16
1.41,0.43,16
1.39,0.5,16
1.4,0.48,16
1.41,0.41,16
1.39,0.47,16
1.4,0.51,16
1.42,0.44,16
1.41,0.46,16
1.41,0.53,16
1.43,0.47,16
1.42,0.44,16
1.41,0.51,16
1.42,0.5,16
1.43,0.44,16
1.41,0.49,16
1.42,0.53,16
1.43,0.45,16
1.42,0.46,16
1.41,0.53,16
1.43,0.48,16
1.42,0.45,16
1.4,0.53,16
1.42,0.52,16
1.43,0.45,16
1.41,0.5,16
1.42,0.54,16
1.43,0.46,16
1.42,0.47,16
1.42,0.54,16
1.44,0.49,16
1.43,0.46,16
1.42,0.54,16
1.42,0.52,16
1.43,0.46,16
1.42,0.51,16
1.43,0.54,16
1.44,0.46,16
1.43,0.47,16
1.42,0.54,16
1.44,0.5,16
1.43,0.47,16
1.41,0.55,16
1.43,0.54,16
1.44,0.47,16
1.42,0.52,16
1.43,0.54,16
1.44,0.47,16
1.43,0.48,16
1.42,0.55,16
1.44,0.5,16
1.43,0.46,16
1.41,0.54,16
1.43,0.53,16
1.43,0.46,16
1.41,0.51,16
1.42,0.55,16
1.43,0.47,16
1.42,0.48,16
1.41,0.55,16
1.43,0.5,16
1.42,0.47,16
1.41,0.55,16
1.43,0.54,16
1.44,0.47,16
1.42,0.53,16
1.42,0.56,16
1.44,0.48,16
1.42,0.49,16
1.42,0.55,16
1.44,0.5,16
1.43,0.47,16
1.42,0.54,16
1.43,0.51,16
1.44,0.43,16
1.42,0.47,16
1.44,0.47,16
1.45,0.36,16
1.44,0.34,16
1.43,0.36,16
1.45,0.26,16
1.44,0.18,16
1.43,0.22,16
1.45,0.17,16
1.46,0.11,16
1.44,0.13,16
1.45,0.12,16
1.47,0.07,16
1.45,0.06,16
1.45,0.06,16
1.47,0.02,16
1.45,0.01,16
1.44,0.01,16
1.46,0.0,16
1.46,0.0,16
1.44,0.0,16
1.45,0.0,16
1.47,0.0,16
1.45,0.0,16
1.45,0.0,16
1.47,0.0,16
1.45,0.0,16
1.44,0.0,16
1.45,0.0,16
1.45,0.0,16
1.43,0.0,16
1.43,0.0,16
1.44,0.0,16
1.43,0.0,16
1.42,0.0,16
1.44,0.0,16
1.43,0.0,16
1.42,0.0,16
1.43,0.0,16
1.44,0.0,16
1.41,0.0,16
1.42,0.0,16
1.43,0.0,16
1.42,0.0,16
1.41,0.0,16
1.43,0.0,16
1.42,0.0,16
1.4,0.0,16
1.41,0.0,16
1.41,0.0,16
1.39,0.0,16
1.4,0.0,16
1.42,0.0,16
1.4,0.0,16
1.4,0.0,16
1.42,0.0,16
1.41,0.0,16
1.4,0.0,16
1.41,0.0,16
1.42,0.0,16
1.4,0.0,16
1.41,0.0,16
1.42,0.0,16
1.41,0.0,16
1.4,0.0,16
1.41,0.0,16
1.4,0.0,16
1.39,0.0,16
1.4,0.0,16
1.41,0.0,16
1.39,0.0,16
1.4,0.0,16
1.42,0.0,16
1.41,0.0,16
1.4,0.0,16
1.42,0.0,16
1.41,0.0,16
1.4,0.0,16
1.41,0.0,16
1.42,0.0,16
1.4,0.0,16
1.41,0.0,16
1.42,0.0,16
1.41,0.0,16
1.4,0.0,16
1.42,0.0,16
1.41,0.0,16
1.4,0.0,16
1.41,0.0,16
1.41,0.0,16
1.39,0.0,16
1.39,0.0,16
1.4,0.0,16
1.39,0.0,16
1.38,0.0,16
1.4,0.0,16
1.39,0.0,16
1.38,0.0,16
1.39,0.0,16
1.4,0.0,16
1.39,0.01,16
1.4,0.01,16
1.42,0.01,16
1.41,0.01,16
1.41,0.02,16
1.44,0.01,16
1.43,0.01,16
1.42,0.04,16
1.43,0.06,16
1.44,0.05,16
1.42,0.13,16
1.44,0.18,16
1.45,0.15,16
1.44,0.2,16
1.43,0.28,16
1.45,0.27,16
1.45,0.27,16
1.43,0.38,16
1.45,0.4,16
1.46,0.37,16
1.44,0.46,16
1.45,0.52,16
1.47,0.48,16
1.45,0.53,16
1.45,0.62,16
1.47,0.6,16
1.45,0.59,16
1.44,0.7,16
1.45,0.71,16
1.45,0.67,16
1.43,0.75,16
1.44,0.8,16
1.46,0.74,16
1.44,0.78,16
1.43,0.86,16
1.45,0.82,16
1.44,0.8,16
1.43,0.88,16
1.44,0.87,16
1.45,0.8,16
1.43,0.86,16
1.44,0.9,16
1.46,0.82,16
1.45,0.84,16
1.44,0.92,16
1.46,0.87,16
1.45,0.84,16
1.44,0.93,16
1.45,0.92,16
1.46,0.85,16
1.44,0.91,16
1.45,0.94,16
1.46,0.86,16
1.45,0.88,16
1.44,0.95,16
1.46,0.9,16
1.45,0.87,16
1.43,0.95,16
1.45,0.93,16
1.46,0.86,16
1.44,0.92,16
1.45,0.95,16
1.46,0.88,16
1.45,0.9,16
1.44,0.96,16
1.46,0.91,16
1.45,0.87,16
1.44,0.95,16
1.46,0.93,16
1.46,0.87,16
1.44,0.93,16
1.46,0.95,16
1.47,0.88,16
1.46,0.9,16
1.46,0.97,16
1.48,0.91,16
1.47,0.88,16
1.46,0.96,16
1.48,0.94,16
1.49,0.87,16
1.47,0.93,16
1.48,0.96,16
1.5,0.88,16
1.48,0.9,16
1.47,0.97,16
1.49,0.91,16
1.48,0.88,16
1.47,0.96,16
1.48,0.95,16
1.5,0.88,16
1.48,0.94,16
1.49,0.97,16
1.51,0.89,16
1.5,0.91,16
1.49,0.97,16
1.51,0.92,16
1.5,0.88,16
1.48,0.96,16
1.49,0.94,16
1.5,0.88,16
1.48,0.93,16
1.49,0.97,16
1.51,0.89,16
1.49,0.91,16
1.49,0.98,16
1.51,0.92,16
1.5,0.89,16
1.49,0.97,16
1.51,0.95,16
1.51,0.88,16
1.49,0.93,16
1.5,0.96,16
1.51,0.88,16
1.49,0.89,16
1.49,0.96,16
1.51,0.91,16
1.5,0.89,16
1.49,0.96,16
1.5,0.94,16
1.51,0.88,16
1.49,0.92,16
1.5,0.95,16
1.51,0.87,16
1.5,0.89,16
1.49,0.95,16
1.52,0.9,16
1.51,0.87,16
1.5,0.95,16
1.51,0.94,16
1.52,0.87,16
1.49,0.92,16
1.5,0.95,16
1.52,0.87,16
1.51,0.89,16
1.5,0.95,16
1.53,0.9,16
1.52,0.86,16
1.5,0.94,16
1.51,0.93,16
1.52,0.87,16
1.5,0.92,16
1.51,0.95,16
1.52,0.86,16
1.51,0.87,16
1.5,0.94,16
1.52,0.89,16
1.51,0.87,16
1.49,0.95,16
1.51,0.93,16
1.51,0.86,16
1.49,0.91,16
1.5,0.94,16
1.51,0.86,16
1.5,0.87,16
1.49,0.94,16
1.51,0.89,16
1.5,0.85,16
1.49,0.93,16
1.5,0.92,16
1.5,0.84,16
1.48,0.9,16
1.49,0.94,16
1.51,0.86,16
1.49,0.87,16
1.49,0.94,16
1.51,0.89,16
1.51,0.85,16
1.49,0.93,16
1.51,0.91,16
1.52,0.83,16
1.5,0.88,16
1.5,0.92,16
1.52,0.84,16
1.5,0.86,16
1.49,0.92,16
1.51,0.87,16
1.51,0.84,16
1.49,0.92,16
1.51,0.9,16
1.52,0.83,16
1.5,0.89,16
1.51,0.93,16
1.52,0.85,16
1.51,0.86,16
1.5,0.93,16
1.52,0.88,16
1.51,0.84,16
1.49,0.92,16
1.51,0.9,16
1.52,0.83,16
1.5,0.89,16
1.51,0.92,16
1.52,0.84,16
1.51,0.86,16
1.51,0.92,16
1.52,0.87,16
1.52,0.83,16
1.5,0.91,16
1.52,0.89,16
1.52,0.82,16
1.51,0.87,16
1.52,0.91,16
1.53,0.83,16
1.52,0.84,16
1.51,0.91,16
1.53,0.86,16
1.52,0.82,16
1.5,0.9,16
1.51,0.88,16
1.52,0.81,16
1.5,0.87,16
1.5,0.9,16
1.52,0.82,16
1.5,0.84,16
1.5,0.9,16
1.52,0.85,16
1.51,0.81,16
1.5,0.89,16
1.51,0.88,16
1.51,0.82,16
1.49,0.87,16
1.5,0.91,16
1.51,0.83,16
1.5,0.85,16
1.5,0.91,16
1.52,0.86,16
1.51,0.83,16
1.5,0.91,16
1.51,0.89,16
1.52,0.82,16
1.5,0.88,16
1.51,0.91,16
1.53,0.83,16
1.52,0.85,16
1.51,0.92,16
1.53,0.87,16
1.52,0.84,16
1.51,0.92,16
1.52,0.91,16
1.53,0.84,16
1.5,0.89,16
1.52,0.93,16
1.53,0.85,16
1.51,0.87,16
1.51,0.93,16
1.53,0.88,16
1.53,0.84,16
1.51,0.92,16
1.53,0.9,17
1.54,0.83,17
1.52,0.89,17
1.53,0.93,17
1.55,0.85,17
1.53,0.87,17
1.52,0.93,17
1.54,0.88,17
1.53,0.84,17
1.52,0.92,17
1.53,0.9,17
1.54,0.84,17
1.51,0.89,17
1.52,0.93,17
1.54,0.85,17
1.53,0.86,17
1.52,0.93,17
1.54,0.87,17
1.53,0.84,17
1.52,0.92,17
1.53,0.91,17
1.54,0.84,17
1.52,0.89,17
1.53,0.93,17
1.55,0.85,17
1.54,0.86,17
1.53,0.93,17
1.55,0.88,17
1.54,0.84,17
1.53,0.92,17
1.54,0.9,17
1.55,0.84,17
1.53,0.89,17
1.55,0.93,17
1.56,0.85,17
1.55,0.87,17
1.54,0.93,17
1.57,0.87,17
1.56,0.83,17
1.54,0.91,17
1.56,0.89,17
1.56,0.83,17
1.54,0.88,17
1.56,0.91,17
1.57,0.83,17
1.56,0.84,17
1.55,0.91,17
1.57,0.86,17
1.56,0.82,17
1.55,0.9,17
1.56,0.89,17
1.56,0.82,17
1.54,0.88,17
1.55,0.91,17
1.57,0.83,17
1.56,0.85,17
1.56,0.91,17
1.58,0.86,17
1.57,0.82,17
1.56,0.9,17
1.57,0.89,17
1.58,0.83,17
1.56,0.87,17
1.56,0.91,17
1.58,0.83,17
1.57,0.83,17
1.56,0.9,17
1.58,0.85,17
1.57,0.82,17
1.56,0.9,17
1.57,0.89,17
1.57,0.82,17
1.55,0.87,17
1.56,0.9,17
1.58,0.82,17
1.57,0.84,17
1.57,0.9,17
1.59,0.85,17
1.58,0.82,17
1.56,0.89,17
1.57,0.88,17
1.58,0.81,17
1.56,0.87,17
1.57,0.9,17
1.58,0.83,17
1.57,0.84,17
1.56,0.9,17
1.58,0.85,17
1.57,0.81,17
1.55,0.89,17
1.57,0.88,17
1.58,0.81,17
1.56,0.86,17
1.57,0.89,17
1.59,0.81,17
1.57,0.82,17
1.56,0.89,17
1.58,0.83,17
1.57,0.8,17
1.55,0.88,17
1.56,0.86,17
1.57,0.79,17
1.55,0.85,17
1.56,0.88,17
1.58,0.8,17
1.57,0.82,17
1.56,0.88,17
1.58,0.82,17
1.57,0.79,17
1.55,0.87,17
1.57,0.86,17
1.57,0.79,17
1.55,0.84,17
1.56,0.88,17
1.58,0.8,17
1.57,0.81,17
1.57,0.87,17
1.59,0.81,17
1.58,0.78,17
1.56,0.86,17
1.57,0.85,17
1.58,0.78,17
1.56,0.84,17
1.57,0.87,17
1.59,0.78,17
1.58,0.8,17
1.57,0.86,17
1.59,0.81,17
1.57,0.78,17
1.55,0.85,17
1.56,0.84,17
1.57,0.77,17
1.56,0.82,17
1.57,0.85,17
1.59,0.77,17
1.57,0.79,17
1.56,0.86,17
1.58,0.8,17
1.57,0.77,17
1.55,0.85,17
1.56,0.83,17
1.57,0.76,17
1.55,0.81,17
1.56,0.85,17
1.57,0.77,17
1.56,0.78,17
1.55,0.85,17
1.57,0.8,17
1.56,0.77,17
1.55,0.84,17
1.56,0.83,17
1.57,0.76,17
1.55,0.81,17
1.56,0.84,17
1.57,0.76,17
1.56,0.78,17
1.55,0.84,17
1.57,0.79,17
1.56,0.76,17
1.55,0.84,17
1.56,0.82,17
1.57,0.76,17
1.55,0.81,17
1.56,0.84,17
1.57,0.76,17
1.56,0.77,17
1.55,0.84,17
1.57,0.79,17
1.56,0.75,17
1.55,0.83,17
1.57,0.82,17
1.58,0.75,17
1.56,0.8,17
1.57,0.83,17
1.59,0.76,17
1.58,0.77,17
1.57,0.85,17
1.59,0.8,17
1.59,0.77,17
1.57,0.85,17
1.58,0.83,17
1.58,0.76,17
1.57,0.81,17
1.58,0.85,17
1.59,0.78,17
1.58,0.79,17
1.58,0.86,17
1.6,0.81,17
1.59,0.77,17
1.57,0.85,17
1.59,0.83,17
1.59,0.76,17
1.57,0.82,17
1.58,0.85,17
1.6,0.78,17
1.59,0.79,17
1.58,0.86,17
1.6,0.8,17
1.59,0.77,17
1.58,0.85,17
1.59,0.84,17
1.6,0.77,17
1.58,0.82,17
1.59,0.86,17
1.6,0.78,17
1.59,0.8,17
1.58,0.87,17
1.6,0.82,17
1.59,0.78,17
1.57,0.86,17
1.59,0.84,17
1.6,0.77,17
1.57,0.82,17
1.58,0.86,17
1.6,0.78,17
1.59,0.79,17
1.58,0.86,17
1.6,0.81,17
1.59,0.77,17
1.57,0.84,17
1.58,0.83,17
1.59,0.76,17
1.57,0.81,17
1.58,0.85,17
1.59,0.77,17
1.58,0.79,17
1.56,0.85,17
1.59,0.79,17
1.58,0.76,17
1.56,0.84,17
1.57,0.82,17
1.58,0.76,17
1.56,0.81,17
1.57,0.85,17
1.59,0.77,17
1.58,0.79,17
1.57,0.86,17
1.6,0.81,17
1.59,0.77,17
1.57,0.85,17
1.58,0.83,17
1.59,0.76,17
1.57,0.81,17
1.58,0.84,17
1.6,0.76,17
1.59,0.78,17
1.58,0.85,17
1.61,0.8,17
1.6,0.76,17
1.58,0.84,17
1.6,0.82,17
1.61,0.75,17
1.59,0.81,17
1.59,0.84,17
1.61,0.77,17
1.6,0.78,17
1.59,0.85,17
1.61,0.8,17
1.6,0.76,17
1.58,0.84,17
1.59,0.82,17
1.6,0.75,17
1.58,0.81,17
1.59,0.84,17
1.61,0.76,17
1.59,0.78,17
1.58,0.85,17
1.61,0.8,17
1.6,0.76,17
1.58,0.84,17
1.59,0.82,17
1.6,0.75,17
1.57,0.81,17
1.58,0.84,17
1.6,0.77,17
1.59,0.78,17
1.58,0.85,17
1.6,0.79,17
1.59,0.76,17
1.58,0.83,17
1.59,0.82,17
1.59,0.75,17
1.57,0.8,17
1.58,0.84,17
1.59,0.76,17
1.58,0.78,17
1.57,0.84,17
1.59,0.79,17
1.59,0.76,17
1.57,0.83,17
1.59,0.82,17
1.6,0.75,17
1.58,0.8,17
1.59,0.83,17
1.6,0.75,17
1.58,0.78,17
1.57,0.84,17
1.59,0.79,17
1.58,0.76,17
1.57,0.84,17
1.58,0.82,17
1.58,0.75,17
1.56,0.81,17
1.57,0.85,17
1.58,0.77,17
1.57,0.77,17
1.56,0.83,17
1.59,0.76,17
1.58,0.71,17
1.57,0.77,17
1.58,0.73,17
1.59,0.64,17
1.57,0.66,17
1.58,0.65,17
1.59,0.53,17
1.58,0.51,17
1.58,0.54,17
1.6,0.45,17
1.6,0.39,17
1.58,0.44,17
1.6,0.39,17
1.61,0.3,17
1.6,0.32,17
1.61,0.32,17
1.64,0.22,17
1.62,0.22,17
1.61,0.26,17
1.64,0.18,17
1.63,0.13,17
1.61,0.18,17
1.63,0.16,17
1.64,0.1,17
1.61,0.14,17
1.62,0.15,17
1.63,0.1,17
1.62,0.11,17
1.61,0.13,17
1.64,0.08,17
1.63,0.05,17
1.61,0.08,17
1.63,0.05,17
1.63,0.03,17
1.6,0.07,17
1.61,0.08,17
1.62,0.06,17
1.61,0.06,17
1.6,0.06,17
1.62,0.03,17
1.61,0.01,17
1.59,0.02,17
1.61,0.01,17
1.61,0.01,17
1.58,0.04,17
1.59,0.04,17
1.6,0.03,17
1.59,0.03,17
1.58,0.03,17
1.6,0.01,17
1.59,0.01,17
1.57,0.02,17
1.59,0.01,17
1.59,0.01,17
1.57,0.03,17
1.58,0.04,17
1.59,0.03,17
1.58,0.03,17
1.57,0.03,17
1.59,0.01,17
1.58,0.01,17
1.56,0.03,17
1.57,0.03,17
1.58,0.03,17
1.56,0.06,17
1.57,0.07,17
1.59,0.05,17
1.58,0.07,17
1.57,0.08,17
1.6,0.05,17
1.59,0.04,17
1.58,0.07,17
1.59,0.07,17
1.6,0.05,17
1.58,0.1,17
1.59,0.12,17
1.6,0.09,17
1.59,0.11,17
1.58,0.14,17
1.6,0.09,17
1.59,0.07,17
1.58,0.11,17
1.59,0.1,17
1.6,0.07,17
1.58,0.13,17
1.58,0.16,17
1.6,0.12,17
1.58,0.14,17
1.57,0.18,17
1.6,0.13,17
1.59,0.11,17
1.57,0.16,17
1.58,0.15,17
1.59,0.11,17
1.57,0.17,17
1.57,0.2,17
1.59,0.15,17
1.58,0.16,17
1.57,0.21,17
1.59,0.17,17
1.58,0.15,17
1.57,0.21,17
1.58,0.2,17
1.59,0.15,17
1.57,0.21,17
1.59,0.24,17
1.6,0.18,17
1.59,0.2,17
1.58,0.25,17
1.61,0.21,17
1.6,0.19,17
1.58,0.26,17
1.59,0.25,17
1.6,0.2,17
1.59,0.27,17
1.59,0.31,17
1.61,0.26,17
1.6,0.32,17
1.59,0.41,17
1.61,0.4,17
1.6,0.41,17
1.59,0.53,17
1.61,0.56,17
1.62,0.54,17
1.6,0.64,17
1.61,0.71,17
1.63,0.68,17
1.61,0.74,17
1.6,0.84,17
1.62,0.83,17
1.62,0.84,17
1.6,0.96,17
1.61,0.98,17
1.62,0.94,17
1.6,1.02,17
1.61,1.08,17
1.62,1.02,17
1.61,1.06,17
1.6,1.14,17
1.62,1.1,17
1.61,1.08,17
1.6,1.17,17
1.62,1.16,17
1.63,1.1,17
1.61,1.17,17
1.62,1.2,17
1.64,1.12,17
1.63,1.14,17
1.62,1.21,17
1.64,1.15,17
1.63,1.13,17
1.61,1.2,17
1.62,1.19,17
1.63,1.12,17
1.61,1.18,17
1.62,1.21,17
1.64,1.13,17
1.62,1.15,17
1.62,1.22,17
1.64,1.16,17
1.63,1.13,17
1.61,1.21,17
1.63,1.19,17
1.64,1.13,17
1.61,1.18,17
1.63,1.21,17
1.64,1.14,17
1.63,1.16,17
1.62,1.23,17
1.64,1.17,17
1.63,1.14,17
1.61,1.22,17
1.63,1.2,17
1.64,1.13,17
1.62,1.18,17
1.63,1.21,17
1.65,1.14,17
